# OpenSignals Text File Format. Version 1
# {"98:D3:71:FD:62:1E": {"position": 0, "device": "bitalino_rev", "device name": "98:D3:71:FD:62:1E0", "device connection": "BTH98:D3:71:FD:62:1E", "sampling rate": 1000, "resolution": [4, 1, 1, 1, 1, 10], "firmware version": 1282, "comments": "", "keywords": "", "mode": 0, "sync interval": 2, "date": "2024-4-19", "time": "12:6:15.176", "channels": [2], "sensor": ["ECGBIT"], "label": ["A2"], "column": ["nSeq", "I1", "I2", "O1", "O2", "A2"], "special": [{}], "digital IO": [0, 0, 1, 1], "convertedValues": 0}}
# EndOfHeader
0	0	0	0	0	669	
1	0	0	0	0	665	
2	0	0	0	0	662	
3	0	0	0	0	657	
4	0	0	0	0	651	
5	0	0	0	0	646	
6	0	0	0	0	642	
7	0	0	0	0	639	
8	0	0	0	0	636	
9	0	0	0	0	632	
10	0	0	0	0	629	
11	0	0	0	0	626	
12	0	0	0	0	620	
13	0	0	0	0	613	
14	0	0	0	0	606	
15	0	0	0	0	601	
0	0	0	0	0	596	
1	0	0	0	0	590	
2	0	0	0	0	585	
3	0	0	0	0	579	
4	0	0	0	0	574	
5	0	0	0	0	567	
6	0	0	0	0	560	
7	0	0	0	0	555	
8	0	0	0	0	551	
9	0	0	0	0	548	
10	0	0	0	0	547	
11	0	0	0	0	546	
12	0	0	0	0	545	
13	0	0	0	0	541	
14	0	0	0	0	540	
15	0	0	0	0	540	
0	0	0	0	0	537	
1	0	0	0	0	536	
2	0	0	0	0	537	
3	0	0	0	0	536	
4	0	0	0	0	535	
5	0	0	0	0	534	
6	0	0	0	0	532	
7	0	0	0	0	531	
8	0	0	0	0	529	
9	0	0	0	0	528	
10	0	0	0	0	529	
11	0	0	0	0	529	
12	0	0	0	0	527	
13	0	0	0	0	527	
14	0	0	0	0	527	
15	0	0	0	0	528	
0	0	0	0	0	527	
1	0	0	0	0	525	
2	0	0	0	0	525	
3	0	0	0	0	523	
4	0	0	0	0	520	
5	0	0	0	0	521	
6	0	0	0	0	521	
7	0	0	0	0	520	
8	0	0	0	0	519	
9	0	0	0	0	518	
10	0	0	0	0	518	
11	0	0	0	0	517	
12	0	0	0	0	518	
13	0	0	0	0	518	
14	0	0	0	0	515	
15	0	0	0	0	514	
0	0	0	0	0	512	
1	0	0	0	0	512	
2	0	0	0	0	512	
3	0	0	0	0	510	
4	0	0	0	0	510	
5	0	0	0	0	511	
6	0	0	0	0	510	
7	0	0	0	0	510	
8	0	0	0	0	510	
9	0	0	0	0	511	
10	0	0	0	0	511	
11	0	0	0	0	511	
12	0	0	0	0	513	
13	0	0	0	0	513	
14	0	0	0	0	514	
15	0	0	0	0	516	
0	0	0	0	0	516	
1	0	0	0	0	515	
2	0	0	0	0	515	
3	0	0	0	0	514	
4	0	0	0	0	512	
5	0	0	0	0	511	
6	0	0	0	0	510	
7	0	0	0	0	507	
8	0	0	0	0	504	
9	0	0	0	0	502	
10	0	0	0	0	502	
11	0	0	0	0	501	
12	0	0	0	0	501	
13	0	0	0	0	500	
14	0	0	0	0	499	
15	0	0	0	0	499	
0	0	0	0	0	499	
1	0	0	0	0	499	
2	0	0	0	0	500	
3	0	0	0	0	500	
4	0	0	0	0	502	
5	0	0	0	0	502	
6	0	0	0	0	500	
7	0	0	0	0	499	
8	0	0	0	0	499	
9	0	0	0	0	498	
10	0	0	0	0	497	
11	0	0	0	0	496	
12	0	0	0	0	496	
13	0	0	0	0	495	
14	0	0	0	0	495	
15	0	0	0	0	495	
0	0	0	0	0	495	
1	0	0	0	0	494	
2	0	0	0	0	494	
3	0	0	0	0	494	
4	0	0	0	0	494	
5	0	0	0	0	493	
6	0	0	0	0	493	
7	0	0	0	0	493	
8	0	0	0	0	493	
9	0	0	0	0	492	
10	0	0	0	0	491	
11	0	0	0	0	491	
12	0	0	0	0	491	
13	0	0	0	0	492	
14	0	0	0	0	493	
15	0	0	0	0	492	
0	0	0	0	0	491	
1	0	0	0	0	489	
2	0	0	0	0	489	
3	0	0	0	0	489	
4	0	0	0	0	487	
5	0	0	0	0	486	
6	0	0	0	0	485	
7	0	0	0	0	486	
8	0	0	0	0	486	
9	0	0	0	0	486	
10	0	0	0	0	485	
11	0	0	0	0	483	
12	0	0	0	0	483	
13	0	0	0	0	481	
14	0	0	0	0	481	
15	0	0	0	0	481	
0	0	0	0	0	480	
1	0	0	0	0	481	
2	0	0	0	0	479	
3	0	0	0	0	477	
4	0	0	0	0	476	
5	0	0	0	0	474	
6	0	0	0	0	474	
7	0	0	0	0	474	
8	0	0	0	0	473	
9	0	0	0	0	473	
10	0	0	0	0	472	
11	0	0	0	0	471	
12	0	0	0	0	471	
13	0	0	0	0	471	
14	0	0	0	0	471	
15	0	0	0	0	471	
0	0	0	0	0	472	
1	0	0	0	0	473	
2	0	0	0	0	472	
3	0	0	0	0	471	
4	0	0	0	0	470	
5	0	0	0	0	469	
6	0	0	0	0	469	
7	0	0	0	0	468	
8	0	0	0	0	469	
9	0	0	0	0	469	
10	0	0	0	0	470	
11	0	0	0	0	469	
12	0	0	0	0	469	
13	0	0	0	0	472	
14	0	0	0	0	472	
15	0	0	0	0	472	
0	0	0	0	0	472	
1	0	0	0	0	472	
2	0	0	0	0	472	
3	0	0	0	0	472	
4	0	0	0	0	473	
5	0	0	0	0	474	
6	0	0	0	0	475	
7	0	0	0	0	475	
8	0	0	0	0	476	
9	0	0	0	0	477	
10	0	0	0	0	477	
11	0	0	0	0	477	
12	0	0	0	0	477	
13	0	0	0	0	477	
14	0	0	0	0	478	
15	0	0	0	0	478	
0	0	0	0	0	478	
1	0	0	0	0	478	
2	0	0	0	0	479	
3	0	0	0	0	480	
4	0	0	0	0	481	
5	0	0	0	0	481	
6	0	0	0	0	482	
7	0	0	0	0	481	
8	0	0	0	0	482	
9	0	0	0	0	483	
10	0	0	0	0	483	
11	0	0	0	0	485	
12	0	0	0	0	486	
13	0	0	0	0	487	
14	0	0	0	0	488	
15	0	0	0	0	490	
0	0	0	0	0	491	
1	0	0	0	0	491	
2	0	0	0	0	492	
3	0	0	0	0	495	
4	0	0	0	0	495	
5	0	0	0	0	495	
6	0	0	0	0	497	
7	0	0	0	0	498	
8	0	0	0	0	498	
9	0	0	0	0	498	
10	0	0	0	0	497	
11	0	0	0	0	497	
12	0	0	0	0	499	
13	0	0	0	0	499	
14	0	0	0	0	501	
15	0	0	0	0	502	
0	0	0	0	0	503	
1	0	0	0	0	504	
2	0	0	0	0	505	
3	0	0	0	0	507	
4	0	0	0	0	508	
5	0	0	0	0	508	
6	0	0	0	0	510	
7	0	0	0	0	511	
8	0	0	0	0	512	
9	0	0	0	0	512	
10	0	0	0	0	512	
11	0	0	0	0	514	
12	0	0	0	0	514	
13	0	0	0	0	515	
14	0	0	0	0	516	
15	0	0	0	0	516	
0	0	0	0	0	516	
1	0	0	0	0	515	
2	0	0	0	0	516	
3	0	0	0	0	516	
4	0	0	0	0	517	
5	0	0	0	0	518	
6	0	0	0	0	520	
7	0	0	0	0	519	
8	0	0	0	0	518	
9	0	0	0	0	517	
10	0	0	0	0	516	
11	0	0	0	0	515	
12	0	0	0	0	514	
13	0	0	0	0	515	
14	0	0	0	0	515	
15	0	0	0	0	515	
0	0	0	0	0	516	
1	0	0	0	0	516	
2	0	0	0	0	517	
3	0	0	0	0	516	
4	0	0	0	0	516	
5	0	0	0	0	515	
6	0	0	0	0	515	
7	0	0	0	0	512	
8	0	0	0	0	512	
9	0	0	0	0	514	
10	0	0	0	0	513	
11	0	0	0	0	513	
12	0	0	0	0	515	
13	0	0	0	0	515	
14	0	0	0	0	516	
15	0	0	0	0	517	
0	0	0	0	0	516	
1	0	0	0	0	516	
2	0	0	0	0	516	
3	0	0	0	0	517	
4	0	0	0	0	517	
5	0	0	0	0	518	
6	0	0	0	0	518	
7	0	0	0	0	517	
8	0	0	0	0	518	
9	0	0	0	0	518	
10	0	0	0	0	517	
11	0	0	0	0	518	
12	0	0	0	0	518	
13	0	0	0	0	518	
14	0	0	0	0	518	
15	0	0	0	0	518	
0	0	0	0	0	518	
1	0	0	0	0	516	
2	0	0	0	0	516	
3	0	0	0	0	518	
4	0	0	0	0	519	
5	0	0	0	0	519	
6	0	0	0	0	518	
7	0	0	0	0	517	
8	0	0	0	0	515	
9	0	0	0	0	515	
10	0	0	0	0	515	
11	0	0	0	0	515	
12	0	0	0	0	515	
13	0	0	0	0	514	
14	0	0	0	0	515	
15	0	0	0	0	515	
0	0	0	0	0	514	
1	0	0	0	0	514	
2	0	0	0	0	514	
3	0	0	0	0	514	
4	0	0	0	0	515	
5	0	0	0	0	513	
6	0	0	0	0	513	
7	0	0	0	0	512	
8	0	0	0	0	512	
9	0	0	0	0	512	
10	0	0	0	0	513	
11	0	0	0	0	513	
12	0	0	0	0	513	
13	0	0	0	0	512	
14	0	0	0	0	512	
15	0	0	0	0	512	
0	0	0	0	0	511	
1	0	0	0	0	511	
2	0	0	0	0	511	
3	0	0	0	0	510	
4	0	0	0	0	509	
5	0	0	0	0	508	
6	0	0	0	0	509	
7	0	0	0	0	509	
8	0	0	0	0	508	
9	0	0	0	0	507	
10	0	0	0	0	506	
11	0	0	0	0	506	
12	0	0	0	0	506	
13	0	0	0	0	507	
14	0	0	0	0	505	
15	0	0	0	0	504	
0	0	0	0	0	502	
1	0	0	0	0	503	
2	0	0	0	0	504	
3	0	0	0	0	504	
4	0	0	0	0	503	
5	0	0	0	0	502	
6	0	0	0	0	501	
7	0	0	0	0	500	
8	0	0	0	0	499	
9	0	0	0	0	500	
10	0	0	0	0	499	
11	0	0	0	0	498	
12	0	0	0	0	497	
13	0	0	0	0	496	
14	0	0	0	0	496	
15	0	0	0	0	497	
0	0	0	0	0	497	
1	0	0	0	0	498	
2	0	0	0	0	498	
3	0	0	0	0	498	
4	0	0	0	0	498	
5	0	0	0	0	497	
6	0	0	0	0	496	
7	0	0	0	0	496	
8	0	0	0	0	496	
9	0	0	0	0	495	
10	0	0	0	0	495	
11	0	0	0	0	495	
12	0	0	0	0	494	
13	0	0	0	0	494	
14	0	0	0	0	494	
15	0	0	0	0	494	
0	0	0	0	0	494	
1	0	0	0	0	494	
2	0	0	0	0	494	
3	0	0	0	0	494	
4	0	0	0	0	494	
5	0	0	0	0	496	
6	0	0	0	0	497	
7	0	0	0	0	498	
8	0	0	0	0	498	
9	0	0	0	0	498	
10	0	0	0	0	499	
11	0	0	0	0	499	
12	0	0	0	0	499	
13	0	0	0	0	498	
14	0	0	0	0	497	
15	0	0	0	0	496	
0	0	0	0	0	494	
1	0	0	0	0	495	
2	0	0	0	0	495	
3	0	0	0	0	496	
4	0	0	0	0	497	
5	0	0	0	0	497	
6	0	0	0	0	499	
7	0	0	0	0	498	
8	0	0	0	0	497	
9	0	0	0	0	498	
10	0	0	0	0	499	
11	0	0	0	0	498	
12	0	0	0	0	498	
13	0	0	0	0	498	
14	0	0	0	0	498	
15	0	0	0	0	498	
0	0	0	0	0	499	
1	0	0	0	0	498	
2	0	0	0	0	499	
3	0	0	0	0	498	
4	0	0	0	0	498	
5	0	0	0	0	500	
6	0	0	0	0	503	
7	0	0	0	0	504	
8	0	0	0	0	503	
9	0	0	0	0	502	
10	0	0	0	0	503	
11	0	0	0	0	503	
12	0	0	0	0	503	
13	0	0	0	0	503	
14	0	0	0	0	503	
15	0	0	0	0	503	
0	0	0	0	0	503	
1	0	0	0	0	503	
2	0	0	0	0	504	
3	0	0	0	0	504	
4	0	0	0	0	506	
5	0	0	0	0	508	
6	0	0	0	0	509	
7	0	0	0	0	509	
8	0	0	0	0	509	
9	0	0	0	0	509	
10	0	0	0	0	509	
11	0	0	0	0	508	
12	0	0	0	0	509	
13	0	0	0	0	509	
14	0	0	0	0	510	
15	0	0	0	0	510	
0	0	0	0	0	510	
1	0	0	0	0	509	
2	0	0	0	0	508	
3	0	0	0	0	508	
4	0	0	0	0	508	
5	0	0	0	0	508	
6	0	0	0	0	510	
7	0	0	0	0	511	
8	0	0	0	0	511	
9	0	0	0	0	511	
10	0	0	0	0	510	
11	0	0	0	0	511	
12	0	0	0	0	512	
13	0	0	0	0	514	
14	0	0	0	0	513	
15	0	0	0	0	513	
0	0	0	0	0	512	
1	0	0	0	0	512	
2	0	0	0	0	512	
3	0	0	0	0	512	
4	0	0	0	0	512	
5	0	0	0	0	513	
6	0	0	0	0	513	
7	0	0	0	0	515	
8	0	0	0	0	516	
9	0	0	0	0	517	
10	0	0	0	0	518	
11	0	0	0	0	516	
12	0	0	0	0	516	
13	0	0	0	0	515	
14	0	0	0	0	512	
15	0	0	0	0	509	
0	0	0	0	0	508	
1	0	0	0	0	510	
2	0	0	0	0	511	
3	0	0	0	0	509	
4	0	0	0	0	508	
5	0	0	0	0	507	
6	0	0	0	0	509	
7	0	0	0	0	510	
8	0	0	0	0	510	
9	0	0	0	0	509	
10	0	0	0	0	509	
11	0	0	0	0	509	
12	0	0	0	0	509	
13	0	0	0	0	509	
14	0	0	0	0	509	
15	0	0	0	0	509	
0	0	0	0	0	510	
1	0	0	0	0	509	
2	0	0	0	0	510	
3	0	0	0	0	510	
4	0	0	0	0	511	
5	0	0	0	0	511	
6	0	0	0	0	512	
7	0	0	0	0	511	
8	0	0	0	0	511	
9	0	0	0	0	511	
10	0	0	0	0	511	
11	0	0	0	0	511	
12	0	0	0	0	511	
13	0	0	0	0	510	
14	0	0	0	0	510	
15	0	0	0	0	511	
0	0	0	0	0	513	
1	0	0	0	0	515	
2	0	0	0	0	514	
3	0	0	0	0	512	
4	0	0	0	0	513	
5	0	0	0	0	512	
6	0	0	0	0	510	
7	0	0	0	0	509	
8	0	0	0	0	508	
9	0	0	0	0	508	
10	0	0	0	0	508	
11	0	0	0	0	507	
12	0	0	0	0	507	
13	0	0	0	0	507	
14	0	0	0	0	508	
15	0	0	0	0	509	
0	0	0	0	0	509	
1	0	0	0	0	508	
2	0	0	0	0	508	
3	0	0	0	0	509	
4	0	0	0	0	510	
5	0	0	0	0	510	
6	0	0	0	0	509	
7	0	0	0	0	510	
8	0	0	0	0	507	
9	0	0	0	0	506	
10	0	0	0	0	507	
11	0	0	0	0	508	
12	0	0	0	0	508	
13	0	0	0	0	508	
14	0	0	0	0	509	
15	0	0	0	0	509	
0	0	0	0	0	507	
1	0	0	0	0	505	
2	0	0	0	0	506	
3	0	0	0	0	507	
4	0	0	0	0	506	
5	0	0	0	0	505	
6	0	0	0	0	505	
7	0	0	0	0	507	
8	0	0	0	0	509	
9	0	0	0	0	510	
10	0	0	0	0	510	
11	0	0	0	0	510	
12	0	0	0	0	510	
13	0	0	0	0	510	
14	0	0	0	0	509	
15	0	0	0	0	510	
0	0	0	0	0	510	
1	0	0	0	0	510	
2	0	0	0	0	509	
3	0	0	0	0	508	
4	0	0	0	0	507	
5	0	0	0	0	506	
6	0	0	0	0	505	
7	0	0	0	0	504	
8	0	0	0	0	504	
9	0	0	0	0	505	
10	0	0	0	0	506	
11	0	0	0	0	508	
12	0	0	0	0	507	
13	0	0	0	0	507	
14	0	0	0	0	507	
15	0	0	0	0	506	
0	0	0	0	0	506	
1	0	0	0	0	506	
2	0	0	0	0	505	
3	0	0	0	0	506	
4	0	0	0	0	506	
5	0	0	0	0	506	
6	0	0	0	0	505	
7	0	0	0	0	506	
8	0	0	0	0	507	
9	0	0	0	0	506	
10	0	0	0	0	506	
11	0	0	0	0	506	
12	0	0	0	0	506	
13	0	0	0	0	507	
14	0	0	0	0	506	
15	0	0	0	0	504	
0	0	0	0	0	502	
1	0	0	0	0	502	
2	0	0	0	0	503	
3	0	0	0	0	500	
4	0	0	0	0	499	
5	0	0	0	0	497	
6	0	0	0	0	496	
7	0	0	0	0	495	
8	0	0	0	0	493	
9	0	0	0	0	492	
10	0	0	0	0	489	
11	0	0	0	0	486	
12	0	0	0	0	484	
13	0	0	0	0	482	
14	0	0	0	0	482	
15	0	0	0	0	481	
0	0	0	0	0	480	
1	0	0	0	0	478	
2	0	0	0	0	476	
3	0	0	0	0	475	
4	0	0	0	0	475	
5	0	0	0	0	474	
6	0	0	0	0	474	
7	0	0	0	0	474	
8	0	0	0	0	475	
9	0	0	0	0	475	
10	0	0	0	0	475	
11	0	0	0	0	475	
12	0	0	0	0	474	
13	0	0	0	0	474	
14	0	0	0	0	473	
15	0	0	0	0	471	
0	0	0	0	0	470	
1	0	0	0	0	468	
2	0	0	0	0	466	
3	0	0	0	0	464	
4	0	0	0	0	462	
5	0	0	0	0	460	
6	0	0	0	0	459	
7	0	0	0	0	459	
8	0	0	0	0	461	
9	0	0	0	0	462	
10	0	0	0	0	464	
11	0	0	0	0	465	
12	0	0	0	0	465	
13	0	0	0	0	465	
14	0	0	0	0	464	
15	0	0	0	0	464	
0	0	0	0	0	464	
1	0	0	0	0	467	
2	0	0	0	0	469	
3	0	0	0	0	472	
4	0	0	0	0	474	
5	0	0	0	0	476	
6	0	0	0	0	478	
7	0	0	0	0	481	
8	0	0	0	0	483	
9	0	0	0	0	485	
10	0	0	0	0	488	
11	0	0	0	0	491	
12	0	0	0	0	493	
13	0	0	0	0	495	
14	0	0	0	0	497	
15	0	0	0	0	499	
0	0	0	0	0	500	
1	0	0	0	0	500	
2	0	0	0	0	501	
3	0	0	0	0	502	
4	0	0	0	0	503	
5	0	0	0	0	504	
6	0	0	0	0	505	
7	0	0	0	0	505	
8	0	0	0	0	505	
9	0	0	0	0	506	
10	0	0	0	0	508	
11	0	0	0	0	509	
12	0	0	0	0	510	
13	0	0	0	0	511	
14	0	0	0	0	512	
15	0	0	0	0	514	
0	0	0	0	0	516	
1	0	0	0	0	519	
2	0	0	0	0	521	
3	0	0	0	0	522	
4	0	0	0	0	524	
5	0	0	0	0	525	
6	0	0	0	0	525	
7	0	0	0	0	527	
8	0	0	0	0	527	
9	0	0	0	0	527	
10	0	0	0	0	527	
11	0	0	0	0	527	
12	0	0	0	0	529	
13	0	0	0	0	530	
14	0	0	0	0	531	
15	0	0	0	0	532	
0	0	0	0	0	534	
1	0	0	0	0	536	
2	0	0	0	0	538	
3	0	0	0	0	538	
4	0	0	0	0	538	
5	0	0	0	0	538	
6	0	0	0	0	538	
7	0	0	0	0	537	
8	0	0	0	0	537	
9	0	0	0	0	536	
10	0	0	0	0	535	
11	0	0	0	0	535	
12	0	0	0	0	533	
13	0	0	0	0	532	
14	0	0	0	0	533	
15	0	0	0	0	533	
0	0	0	0	0	531	
1	0	0	0	0	531	
2	0	0	0	0	531	
3	0	0	0	0	530	
4	0	0	0	0	531	
5	0	0	0	0	531	
6	0	0	0	0	531	
7	0	0	0	0	531	
8	0	0	0	0	530	
9	0	0	0	0	529	
10	0	0	0	0	528	
11	0	0	0	0	529	
12	0	0	0	0	529	
13	0	0	0	0	528	
14	0	0	0	0	527	
15	0	0	0	0	526	
0	0	0	0	0	526	
1	0	0	0	0	527	
2	0	0	0	0	531	
3	0	0	0	0	537	
4	0	0	0	0	543	
5	0	0	0	0	548	
6	0	0	0	0	554	
7	0	0	0	0	558	
8	0	0	0	0	561	
9	0	0	0	0	563	
10	0	0	0	0	563	
11	0	0	0	0	564	
12	0	0	0	0	567	
13	0	0	0	0	571	
14	0	0	0	0	575	
15	0	0	0	0	579	
0	0	0	0	0	583	
1	0	0	0	0	583	
2	0	0	0	0	581	
3	0	0	0	0	574	
4	0	0	0	0	562	
5	0	0	0	0	547	
6	0	0	0	0	528	
7	0	0	0	0	506	
8	0	0	0	0	481	
9	0	0	0	0	456	
10	0	0	0	0	431	
11	0	0	0	0	403	
12	0	0	0	0	372	
13	0	0	0	0	338	
14	0	0	0	0	300	
15	0	0	0	0	258	
0	0	0	0	0	211	
1	0	0	0	0	164	
2	0	0	0	0	124	
3	0	0	0	0	93	
4	0	0	0	0	74	
5	0	0	0	0	68	
6	0	0	0	0	74	
7	0	0	0	0	85	
8	0	0	0	0	102	
9	0	0	0	0	127	
10	0	0	0	0	161	
11	0	0	0	0	201	
12	0	0	0	0	246	
13	0	0	0	0	289	
14	0	0	0	0	333	
15	0	0	0	0	372	
0	0	0	0	0	408	
1	0	0	0	0	440	
2	0	0	0	0	467	
3	0	0	0	0	491	
4	0	0	0	0	515	
5	0	0	0	0	537	
6	0	0	0	0	560	
7	0	0	0	0	583	
8	0	0	0	0	605	
9	0	0	0	0	623	
10	0	0	0	0	642	
11	0	0	0	0	661	
12	0	0	0	0	678	
13	0	0	0	0	692	
14	0	0	0	0	704	
15	0	0	0	0	712	
0	0	0	0	0	718	
1	0	0	0	0	718	
2	0	0	0	0	717	
3	0	0	0	0	713	
4	0	0	0	0	707	
5	0	0	0	0	700	
6	0	0	0	0	692	
7	0	0	0	0	686	
8	0	0	0	0	678	
9	0	0	0	0	671	
10	0	0	0	0	663	
11	0	0	0	0	655	
12	0	0	0	0	648	
13	0	0	0	0	640	
14	0	0	0	0	634	
15	0	0	0	0	627	
0	0	0	0	0	619	
1	0	0	0	0	612	
2	0	0	0	0	605	
3	0	0	0	0	598	
4	0	0	0	0	592	
5	0	0	0	0	587	
6	0	0	0	0	582	
7	0	0	0	0	577	
8	0	0	0	0	574	
9	0	0	0	0	572	
10	0	0	0	0	568	
11	0	0	0	0	564	
12	0	0	0	0	561	
13	0	0	0	0	560	
14	0	0	0	0	559	
15	0	0	0	0	557	
0	0	0	0	0	556	
1	0	0	0	0	556	
2	0	0	0	0	554	
3	0	0	0	0	553	
4	0	0	0	0	553	
5	0	0	0	0	552	
6	0	0	0	0	552	
7	0	0	0	0	550	
8	0	0	0	0	549	
9	0	0	0	0	549	
10	0	0	0	0	549	
11	0	0	0	0	549	
12	0	0	0	0	548	
13	0	0	0	0	547	
14	0	0	0	0	546	
15	0	0	0	0	545	
0	0	0	0	0	544	
1	0	0	0	0	544	
2	0	0	0	0	544	
3	0	0	0	0	543	
4	0	0	0	0	543	
5	0	0	0	0	542	
6	0	0	0	0	542	
7	0	0	0	0	542	
8	0	0	0	0	541	
9	0	0	0	0	541	
10	0	0	0	0	540	
11	0	0	0	0	540	
12	0	0	0	0	540	
13	0	0	0	0	539	
14	0	0	0	0	540	
15	0	0	0	0	539	
0	0	0	0	0	537	
1	0	0	0	0	538	
2	0	0	0	0	538	
3	0	0	0	0	537	
4	0	0	0	0	536	
5	0	0	0	0	536	
6	0	0	0	0	535	
7	0	0	0	0	534	
8	0	0	0	0	533	
9	0	0	0	0	533	
10	0	0	0	0	533	
11	0	0	0	0	533	
12	0	0	0	0	532	
13	0	0	0	0	532	
14	0	0	0	0	532	
15	0	0	0	0	531	
0	0	0	0	0	531	
1	0	0	0	0	530	
2	0	0	0	0	529	
3	0	0	0	0	526	
4	0	0	0	0	523	
5	0	0	0	0	521	
6	0	0	0	0	520	
7	0	0	0	0	519	
8	0	0	0	0	518	
9	0	0	0	0	518	
10	0	0	0	0	518	
11	0	0	0	0	518	
12	0	0	0	0	517	
13	0	0	0	0	516	
14	0	0	0	0	516	
15	0	0	0	0	516	
0	0	0	0	0	516	
1	0	0	0	0	516	
2	0	0	0	0	514	
3	0	0	0	0	512	
4	0	0	0	0	512	
5	0	0	0	0	511	
6	0	0	0	0	511	
7	0	0	0	0	511	
8	0	0	0	0	511	
9	0	0	0	0	510	
10	0	0	0	0	510	
11	0	0	0	0	509	
12	0	0	0	0	510	
13	0	0	0	0	510	
14	0	0	0	0	511	
15	0	0	0	0	510	
0	0	0	0	0	510	
1	0	0	0	0	507	
2	0	0	0	0	504	
3	0	0	0	0	504	
4	0	0	0	0	504	
5	0	0	0	0	503	
6	0	0	0	0	502	
7	0	0	0	0	500	
8	0	0	0	0	499	
9	0	0	0	0	499	
10	0	0	0	0	500	
11	0	0	0	0	500	
12	0	0	0	0	500	
13	0	0	0	0	500	
14	0	0	0	0	499	
15	0	0	0	0	499	
0	0	0	0	0	499	
1	0	0	0	0	499	
2	0	0	0	0	497	
3	0	0	0	0	496	
4	0	0	0	0	496	
5	0	0	0	0	494	
6	0	0	0	0	493	
7	0	0	0	0	492	
8	0	0	0	0	491	
9	0	0	0	0	492	
10	0	0	0	0	491	
11	0	0	0	0	489	
12	0	0	0	0	489	
13	0	0	0	0	489	
14	0	0	0	0	489	
15	0	0	0	0	487	
0	0	0	0	0	486	
1	0	0	0	0	486	
2	0	0	0	0	487	
3	0	0	0	0	487	
4	0	0	0	0	486	
5	0	0	0	0	485	
6	0	0	0	0	483	
7	0	0	0	0	483	
8	0	0	0	0	481	
9	0	0	0	0	480	
10	0	0	0	0	480	
11	0	0	0	0	479	
12	0	0	0	0	478	
13	0	0	0	0	475	
14	0	0	0	0	473	
15	0	0	0	0	472	
0	0	0	0	0	472	
1	0	0	0	0	471	
2	0	0	0	0	471	
3	0	0	0	0	470	
4	0	0	0	0	470	
5	0	0	0	0	469	
6	0	0	0	0	467	
7	0	0	0	0	467	
8	0	0	0	0	467	
9	0	0	0	0	466	
10	0	0	0	0	466	
11	0	0	0	0	466	
12	0	0	0	0	467	
13	0	0	0	0	467	
14	0	0	0	0	467	
15	0	0	0	0	468	
0	0	0	0	0	468	
1	0	0	0	0	470	
2	0	0	0	0	469	
3	0	0	0	0	469	
4	0	0	0	0	469	
5	0	0	0	0	470	
6	0	0	0	0	473	
7	0	0	0	0	475	
8	0	0	0	0	475	
9	0	0	0	0	475	
10	0	0	0	0	475	
11	0	0	0	0	475	
12	0	0	0	0	473	
13	0	0	0	0	472	
14	0	0	0	0	473	
15	0	0	0	0	474	
0	0	0	0	0	476	
1	0	0	0	0	477	
2	0	0	0	0	477	
3	0	0	0	0	477	
4	0	0	0	0	477	
5	0	0	0	0	478	
6	0	0	0	0	478	
7	0	0	0	0	477	
8	0	0	0	0	477	
9	0	0	0	0	477	
10	0	0	0	0	478	
11	0	0	0	0	479	
12	0	0	0	0	479	
13	0	0	0	0	479	
14	0	0	0	0	479	
15	0	0	0	0	481	
0	0	0	0	0	480	
1	0	0	0	0	480	
2	0	0	0	0	480	
3	0	0	0	0	480	
4	0	0	0	0	482	
5	0	0	0	0	483	
6	0	0	0	0	484	
7	0	0	0	0	488	
8	0	0	0	0	491	
9	0	0	0	0	493	
10	0	0	0	0	495	
11	0	0	0	0	497	
12	0	0	0	0	497	
13	0	0	0	0	498	
14	0	0	0	0	500	
15	0	0	0	0	500	
0	0	0	0	0	501	
1	0	0	0	0	503	
2	0	0	0	0	502	
3	0	0	0	0	502	
4	0	0	0	0	503	
5	0	0	0	0	504	
6	0	0	0	0	504	
7	0	0	0	0	504	
8	0	0	0	0	506	
9	0	0	0	0	506	
10	0	0	0	0	506	
11	0	0	0	0	507	
12	0	0	0	0	507	
13	0	0	0	0	508	
14	0	0	0	0	508	
15	0	0	0	0	508	
0	0	0	0	0	509	
1	0	0	0	0	510	
2	0	0	0	0	511	
3	0	0	0	0	512	
4	0	0	0	0	514	
5	0	0	0	0	515	
6	0	0	0	0	514	
7	0	0	0	0	515	
8	0	0	0	0	515	
9	0	0	0	0	515	
10	0	0	0	0	517	
11	0	0	0	0	519	
12	0	0	0	0	519	
13	0	0	0	0	520	
14	0	0	0	0	520	
15	0	0	0	0	521	
0	0	0	0	0	521	
1	0	0	0	0	521	
2	0	0	0	0	523	
3	0	0	0	0	524	
4	0	0	0	0	524	
5	0	0	0	0	524	
6	0	0	0	0	525	
7	0	0	0	0	526	
8	0	0	0	0	526	
9	0	0	0	0	526	
10	0	0	0	0	525	
11	0	0	0	0	525	
12	0	0	0	0	524	
13	0	0	0	0	524	
14	0	0	0	0	523	
15	0	0	0	0	521	
0	0	0	0	0	521	
1	0	0	0	0	521	
2	0	0	0	0	522	
3	0	0	0	0	523	
4	0	0	0	0	522	
5	0	0	0	0	522	
6	0	0	0	0	523	
7	0	0	0	0	522	
8	0	0	0	0	520	
9	0	0	0	0	520	
10	0	0	0	0	521	
11	0	0	0	0	523	
12	0	0	0	0	524	
13	0	0	0	0	524	
14	0	0	0	0	523	
15	0	0	0	0	524	
0	0	0	0	0	523	
1	0	0	0	0	523	
2	0	0	0	0	523	
3	0	0	0	0	523	
4	0	0	0	0	523	
5	0	0	0	0	522	
6	0	0	0	0	521	
7	0	0	0	0	520	
8	0	0	0	0	519	
9	0	0	0	0	519	
10	0	0	0	0	519	
11	0	0	0	0	520	
12	0	0	0	0	520	
13	0	0	0	0	521	
14	0	0	0	0	522	
15	0	0	0	0	521	
0	0	0	0	0	521	
1	0	0	0	0	522	
2	0	0	0	0	521	
3	0	0	0	0	519	
4	0	0	0	0	518	
5	0	0	0	0	517	
6	0	0	0	0	517	
7	0	0	0	0	518	
8	0	0	0	0	520	
9	0	0	0	0	519	
10	0	0	0	0	518	
11	0	0	0	0	518	
12	0	0	0	0	516	
13	0	0	0	0	516	
14	0	0	0	0	513	
15	0	0	0	0	513	
0	0	0	0	0	514	
1	0	0	0	0	515	
2	0	0	0	0	515	
3	0	0	0	0	515	
4	0	0	0	0	515	
5	0	0	0	0	514	
6	0	0	0	0	512	
7	0	0	0	0	510	
8	0	0	0	0	509	
9	0	0	0	0	507	
10	0	0	0	0	507	
11	0	0	0	0	508	
12	0	0	0	0	509	
13	0	0	0	0	509	
14	0	0	0	0	509	
15	0	0	0	0	509	
0	0	0	0	0	510	
1	0	0	0	0	510	
2	0	0	0	0	510	
3	0	0	0	0	510	
4	0	0	0	0	511	
5	0	0	0	0	510	
6	0	0	0	0	510	
7	0	0	0	0	510	
8	0	0	0	0	509	
9	0	0	0	0	510	
10	0	0	0	0	508	
11	0	0	0	0	508	
12	0	0	0	0	509	
13	0	0	0	0	509	
14	0	0	0	0	510	
15	0	0	0	0	509	
0	0	0	0	0	509	
1	0	0	0	0	508	
2	0	0	0	0	507	
3	0	0	0	0	508	
4	0	0	0	0	508	
5	0	0	0	0	508	
6	0	0	0	0	509	
7	0	0	0	0	509	
8	0	0	0	0	506	
9	0	0	0	0	505	
10	0	0	0	0	505	
11	0	0	0	0	505	
12	0	0	0	0	505	
13	0	0	0	0	505	
14	0	0	0	0	505	
15	0	0	0	0	507	
0	0	0	0	0	508	
1	0	0	0	0	507	
2	0	0	0	0	505	
3	0	0	0	0	505	
4	0	0	0	0	505	
5	0	0	0	0	503	
6	0	0	0	0	504	
7	0	0	0	0	505	
8	0	0	0	0	504	
9	0	0	0	0	503	
10	0	0	0	0	502	
11	0	0	0	0	502	
12	0	0	0	0	502	
13	0	0	0	0	502	
14	0	0	0	0	504	
15	0	0	0	0	503	
0	0	0	0	0	504	
1	0	0	0	0	504	
2	0	0	0	0	504	
3	0	0	0	0	503	
4	0	0	0	0	503	
5	0	0	0	0	503	
6	0	0	0	0	503	
7	0	0	0	0	503	
8	0	0	0	0	504	
9	0	0	0	0	505	
10	0	0	0	0	505	
11	0	0	0	0	504	
12	0	0	0	0	503	
13	0	0	0	0	503	
14	0	0	0	0	503	
15	0	0	0	0	504	
0	0	0	0	0	504	
1	0	0	0	0	503	
2	0	0	0	0	504	
3	0	0	0	0	505	
4	0	0	0	0	506	
5	0	0	0	0	508	
6	0	0	0	0	511	
7	0	0	0	0	513	
8	0	0	0	0	512	
9	0	0	0	0	512	
10	0	0	0	0	512	
11	0	0	0	0	510	
12	0	0	0	0	510	
13	0	0	0	0	509	
14	0	0	0	0	509	
15	0	0	0	0	509	
0	0	0	0	0	509	
1	0	0	0	0	510	
2	0	0	0	0	510	
3	0	0	0	0	510	
4	0	0	0	0	511	
5	0	0	0	0	510	
6	0	0	0	0	509	
7	0	0	0	0	509	
8	0	0	0	0	510	
9	0	0	0	0	510	
10	0	0	0	0	510	
11	0	0	0	0	510	
12	0	0	0	0	510	
13	0	0	0	0	510	
14	0	0	0	0	510	
15	0	0	0	0	509	
0	0	0	0	0	509	
1	0	0	0	0	507	
2	0	0	0	0	507	
3	0	0	0	0	507	
4	0	0	0	0	507	
5	0	0	0	0	508	
6	0	0	0	0	509	
7	0	0	0	0	509	
8	0	0	0	0	509	
9	0	0	0	0	509	
10	0	0	0	0	511	
11	0	0	0	0	512	
12	0	0	0	0	513	
13	0	0	0	0	512	
14	0	0	0	0	511	
15	0	0	0	0	512	
0	0	0	0	0	512	
1	0	0	0	0	512	
2	0	0	0	0	513	
3	0	0	0	0	513	
4	0	0	0	0	514	
5	0	0	0	0	513	
6	0	0	0	0	513	
7	0	0	0	0	512	
8	0	0	0	0	512	
9	0	0	0	0	513	
10	0	0	0	0	512	
11	0	0	0	0	512	
12	0	0	0	0	514	
13	0	0	0	0	513	
14	0	0	0	0	513	
15	0	0	0	0	512	
0	0	0	0	0	512	
1	0	0	0	0	512	
2	0	0	0	0	512	
3	0	0	0	0	513	
4	0	0	0	0	513	
5	0	0	0	0	514	
6	0	0	0	0	515	
7	0	0	0	0	514	
8	0	0	0	0	514	
9	0	0	0	0	514	
10	0	0	0	0	514	
11	0	0	0	0	514	
12	0	0	0	0	513	
13	0	0	0	0	514	
14	0	0	0	0	513	
15	0	0	0	0	512	
0	0	0	0	0	512	
1	0	0	0	0	509	
2	0	0	0	0	509	
3	0	0	0	0	509	
4	0	0	0	0	508	
5	0	0	0	0	508	
6	0	0	0	0	508	
7	0	0	0	0	509	
8	0	0	0	0	510	
9	0	0	0	0	512	
10	0	0	0	0	512	
11	0	0	0	0	511	
12	0	0	0	0	512	
13	0	0	0	0	512	
14	0	0	0	0	512	
15	0	0	0	0	512	
0	0	0	0	0	512	
1	0	0	0	0	511	
2	0	0	0	0	510	
3	0	0	0	0	511	
4	0	0	0	0	511	
5	0	0	0	0	510	
6	0	0	0	0	510	
7	0	0	0	0	509	
8	0	0	0	0	509	
9	0	0	0	0	508	
10	0	0	0	0	510	
11	0	0	0	0	512	
12	0	0	0	0	512	
13	0	0	0	0	512	
14	0	0	0	0	513	
15	0	0	0	0	514	
0	0	0	0	0	514	
1	0	0	0	0	514	
2	0	0	0	0	512	
3	0	0	0	0	511	
4	0	0	0	0	512	
5	0	0	0	0	513	
6	0	0	0	0	511	
7	0	0	0	0	511	
8	0	0	0	0	510	
9	0	0	0	0	509	
10	0	0	0	0	509	
11	0	0	0	0	510	
12	0	0	0	0	509	
13	0	0	0	0	508	
14	0	0	0	0	508	
15	0	0	0	0	509	
0	0	0	0	0	511	
1	0	0	0	0	512	
2	0	0	0	0	512	
3	0	0	0	0	512	
4	0	0	0	0	512	
5	0	0	0	0	512	
6	0	0	0	0	511	
7	0	0	0	0	512	
8	0	0	0	0	511	
9	0	0	0	0	511	
10	0	0	0	0	511	
11	0	0	0	0	511	
12	0	0	0	0	511	
13	0	0	0	0	511	
14	0	0	0	0	511	
15	0	0	0	0	511	
0	0	0	0	0	511	
1	0	0	0	0	510	
2	0	0	0	0	509	
3	0	0	0	0	507	
4	0	0	0	0	505	
5	0	0	0	0	505	
6	0	0	0	0	504	
7	0	0	0	0	503	
8	0	0	0	0	503	
9	0	0	0	0	503	
10	0	0	0	0	505	
11	0	0	0	0	505	
12	0	0	0	0	507	
13	0	0	0	0	509	
14	0	0	0	0	510	
15	0	0	0	0	511	
0	0	0	0	0	511	
1	0	0	0	0	510	
2	0	0	0	0	510	
3	0	0	0	0	509	
4	0	0	0	0	510	
5	0	0	0	0	510	
6	0	0	0	0	509	
7	0	0	0	0	508	
8	0	0	0	0	508	
9	0	0	0	0	509	
10	0	0	0	0	508	
11	0	0	0	0	507	
12	0	0	0	0	508	
13	0	0	0	0	509	
14	0	0	0	0	510	
15	0	0	0	0	509	
0	0	0	0	0	507	
1	0	0	0	0	508	
2	0	0	0	0	508	
3	0	0	0	0	508	
4	0	0	0	0	508	
5	0	0	0	0	508	
6	0	0	0	0	507	
7	0	0	0	0	506	
8	0	0	0	0	504	
9	0	0	0	0	504	
10	0	0	0	0	503	
11	0	0	0	0	503	
12	0	0	0	0	505	
13	0	0	0	0	506	
14	0	0	0	0	506	
15	0	0	0	0	505	
0	0	0	0	0	506	
1	0	0	0	0	507	
2	0	0	0	0	508	
3	0	0	0	0	509	
4	0	0	0	0	509	
5	0	0	0	0	510	
6	0	0	0	0	510	
7	0	0	0	0	510	
8	0	0	0	0	509	
9	0	0	0	0	508	
10	0	0	0	0	508	
11	0	0	0	0	510	
12	0	0	0	0	509	
13	0	0	0	0	508	
14	0	0	0	0	506	
15	0	0	0	0	505	
0	0	0	0	0	504	
1	0	0	0	0	503	
2	0	0	0	0	503	
3	0	0	0	0	503	
4	0	0	0	0	503	
5	0	0	0	0	503	
6	0	0	0	0	503	
7	0	0	0	0	503	
8	0	0	0	0	504	
9	0	0	0	0	504	
10	0	0	0	0	502	
11	0	0	0	0	500	
12	0	0	0	0	499	
13	0	0	0	0	499	
14	0	0	0	0	500	
15	0	0	0	0	502	
0	0	0	0	0	501	
1	0	0	0	0	501	
2	0	0	0	0	502	
3	0	0	0	0	503	
4	0	0	0	0	504	
5	0	0	0	0	504	
6	0	0	0	0	505	
7	0	0	0	0	504	
8	0	0	0	0	504	
9	0	0	0	0	501	
10	0	0	0	0	499	
11	0	0	0	0	500	
12	0	0	0	0	501	
13	0	0	0	0	501	
14	0	0	0	0	501	
15	0	0	0	0	500	
0	0	0	0	0	499	
1	0	0	0	0	497	
2	0	0	0	0	494	
3	0	0	0	0	493	
4	0	0	0	0	491	
5	0	0	0	0	488	
6	0	0	0	0	486	
7	0	0	0	0	484	
8	0	0	0	0	483	
9	0	0	0	0	482	
10	0	0	0	0	481	
11	0	0	0	0	481	
12	0	0	0	0	481	
13	0	0	0	0	480	
14	0	0	0	0	479	
15	0	0	0	0	478	
0	0	0	0	0	477	
1	0	0	0	0	476	
2	0	0	0	0	473	
3	0	0	0	0	472	
4	0	0	0	0	471	
5	0	0	0	0	471	
6	0	0	0	0	473	
7	0	0	0	0	475	
8	0	0	0	0	475	
9	0	0	0	0	475	
10	0	0	0	0	472	
11	0	0	0	0	472	
12	0	0	0	0	471	
13	0	0	0	0	470	
14	0	0	0	0	470	
15	0	0	0	0	468	
0	0	0	0	0	468	
1	0	0	0	0	466	
2	0	0	0	0	466	
3	0	0	0	0	466	
4	0	0	0	0	465	
5	0	0	0	0	465	
6	0	0	0	0	464	
7	0	0	0	0	464	
8	0	0	0	0	463	
9	0	0	0	0	463	
10	0	0	0	0	465	
11	0	0	0	0	465	
12	0	0	0	0	467	
13	0	0	0	0	471	
14	0	0	0	0	475	
15	0	0	0	0	476	
0	0	0	0	0	477	
1	0	0	0	0	479	
2	0	0	0	0	481	
3	0	0	0	0	484	
4	0	0	0	0	488	
5	0	0	0	0	490	
6	0	0	0	0	492	
7	0	0	0	0	494	
8	0	0	0	0	495	
9	0	0	0	0	496	
10	0	0	0	0	496	
11	0	0	0	0	497	
12	0	0	0	0	500	
13	0	0	0	0	501	
14	0	0	0	0	503	
15	0	0	0	0	504	
0	0	0	0	0	502	
1	0	0	0	0	501	
2	0	0	0	0	500	
3	0	0	0	0	501	
4	0	0	0	0	501	
5	0	0	0	0	501	
6	0	0	0	0	502	
7	0	0	0	0	503	
8	0	0	0	0	504	
9	0	0	0	0	504	
10	0	0	0	0	505	
11	0	0	0	0	507	
12	0	0	0	0	508	
13	0	0	0	0	512	
14	0	0	0	0	514	
15	0	0	0	0	515	
0	0	0	0	0	515	
1	0	0	0	0	515	
2	0	0	0	0	516	
3	0	0	0	0	516	
4	0	0	0	0	518	
5	0	0	0	0	519	
6	0	0	0	0	518	
7	0	0	0	0	518	
8	0	0	0	0	517	
9	0	0	0	0	516	
10	0	0	0	0	516	
11	0	0	0	0	516	
12	0	0	0	0	517	
13	0	0	0	0	516	
14	0	0	0	0	516	
15	0	0	0	0	517	
0	0	0	0	0	518	
1	0	0	0	0	516	
2	0	0	0	0	515	
3	0	0	0	0	515	
4	0	0	0	0	516	
5	0	0	0	0	516	
6	0	0	0	0	518	
7	0	0	0	0	519	
8	0	0	0	0	519	
9	0	0	0	0	519	
10	0	0	0	0	519	
11	0	0	0	0	518	
12	0	0	0	0	516	
13	0	0	0	0	516	
14	0	0	0	0	516	
15	0	0	0	0	516	
0	0	0	0	0	516	
1	0	0	0	0	516	
2	0	0	0	0	516	
3	0	0	0	0	515	
4	0	0	0	0	513	
5	0	0	0	0	513	
6	0	0	0	0	512	
7	0	0	0	0	514	
8	0	0	0	0	516	
9	0	0	0	0	519	
10	0	0	0	0	525	
11	0	0	0	0	531	
12	0	0	0	0	537	
13	0	0	0	0	541	
14	0	0	0	0	545	
15	0	0	0	0	547	
0	0	0	0	0	547	
1	0	0	0	0	549	
2	0	0	0	0	550	
3	0	0	0	0	551	
4	0	0	0	0	555	
5	0	0	0	0	555	
6	0	0	0	0	556	
7	0	0	0	0	556	
8	0	0	0	0	551	
9	0	0	0	0	545	
10	0	0	0	0	534	
11	0	0	0	0	521	
12	0	0	0	0	504	
13	0	0	0	0	483	
14	0	0	0	0	460	
15	0	0	0	0	438	
0	0	0	0	0	416	
1	0	0	0	0	397	
2	0	0	0	0	375	
3	0	0	0	0	350	
4	0	0	0	0	321	
5	0	0	0	0	287	
6	0	0	0	0	250	
7	0	0	0	0	213	
8	0	0	0	0	176	
9	0	0	0	0	146	
10	0	0	0	0	127	
11	0	0	0	0	122	
12	0	0	0	0	133	
13	0	0	0	0	154	
14	0	0	0	0	181	
15	0	0	0	0	213	
0	0	0	0	0	246	
1	0	0	0	0	281	
2	0	0	0	0	317	
3	0	0	0	0	355	
4	0	0	0	0	391	
5	0	0	0	0	422	
6	0	0	0	0	450	
7	0	0	0	0	475	
8	0	0	0	0	490	
9	0	0	0	0	498	
10	0	0	0	0	505	
11	0	0	0	0	511	
12	0	0	0	0	518	
13	0	0	0	0	526	
14	0	0	0	0	535	
15	0	0	0	0	546	
0	0	0	0	0	558	
1	0	0	0	0	570	
2	0	0	0	0	582	
3	0	0	0	0	593	
4	0	0	0	0	608	
5	0	0	0	0	624	
6	0	0	0	0	638	
7	0	0	0	0	647	
8	0	0	0	0	652	
9	0	0	0	0	655	
10	0	0	0	0	657	
11	0	0	0	0	657	
12	0	0	0	0	654	
13	0	0	0	0	650	
14	0	0	0	0	646	
15	0	0	0	0	641	
0	0	0	0	0	638	
1	0	0	0	0	635	
2	0	0	0	0	633	
3	0	0	0	0	628	
4	0	0	0	0	621	
5	0	0	0	0	617	
6	0	0	0	0	611	
7	0	0	0	0	605	
8	0	0	0	0	598	
9	0	0	0	0	591	
10	0	0	0	0	587	
11	0	0	0	0	581	
12	0	0	0	0	575	
13	0	0	0	0	570	
14	0	0	0	0	563	
15	0	0	0	0	558	
0	0	0	0	0	551	
1	0	0	0	0	547	
2	0	0	0	0	543	
3	0	0	0	0	539	
4	0	0	0	0	537	
5	0	0	0	0	534	
6	0	0	0	0	531	
7	0	0	0	0	531	
8	0	0	0	0	533	
9	0	0	0	0	534	
10	0	0	0	0	532	
11	0	0	0	0	531	
12	0	0	0	0	531	
13	0	0	0	0	529	
14	0	0	0	0	526	
15	0	0	0	0	524	
0	0	0	0	0	521	
1	0	0	0	0	519	
2	0	0	0	0	519	
3	0	0	0	0	517	
4	0	0	0	0	516	
5	0	0	0	0	516	
6	0	0	0	0	518	
7	0	0	0	0	519	
8	0	0	0	0	521	
9	0	0	0	0	518	
10	0	0	0	0	514	
11	0	0	0	0	512	
12	0	0	0	0	511	
13	0	0	0	0	510	
14	0	0	0	0	508	
15	0	0	0	0	507	
0	0	0	0	0	508	
1	0	0	0	0	509	
2	0	0	0	0	510	
3	0	0	0	0	510	
4	0	0	0	0	509	
5	0	0	0	0	507	
6	0	0	0	0	507	
7	0	0	0	0	508	
8	0	0	0	0	508	
9	0	0	0	0	508	
10	0	0	0	0	505	
11	0	0	0	0	503	
12	0	0	0	0	505	
13	0	0	0	0	505	
14	0	0	0	0	507	
15	0	0	0	0	510	
0	0	0	0	0	511	
1	0	0	0	0	512	
2	0	0	0	0	513	
3	0	0	0	0	510	
4	0	0	0	0	506	
5	0	0	0	0	504	
6	0	0	0	0	508	
7	0	0	0	0	515	
8	0	0	0	0	517	
9	0	0	0	0	514	
10	0	0	0	0	507	
11	0	0	0	0	503	
12	0	0	0	0	496	
13	0	0	0	0	491	
14	0	0	0	0	489	
15	0	0	0	0	486	
0	0	0	0	0	484	
1	0	0	0	0	484	
2	0	0	0	0	484	
3	0	0	0	0	482	
4	0	0	0	0	480	
5	0	0	0	0	479	
6	0	0	0	0	480	
7	0	0	0	0	483	
8	0	0	0	0	482	
9	0	0	0	0	481	
10	0	0	0	0	482	
11	0	0	0	0	481	
12	0	0	0	0	483	
13	0	0	0	0	482	
14	0	0	0	0	483	
15	0	0	0	0	484	
0	0	0	0	0	485	
1	0	0	0	0	487	
2	0	0	0	0	489	
3	0	0	0	0	489	
4	0	0	0	0	491	
5	0	0	0	0	492	
6	0	0	0	0	494	
7	0	0	0	0	492	
8	0	0	0	0	494	
9	0	0	0	0	495	
10	0	0	0	0	492	
11	0	0	0	0	491	
12	0	0	0	0	489	
13	0	0	0	0	491	
14	0	0	0	0	489	
15	0	0	0	0	486	
0	0	0	0	0	481	
1	0	0	0	0	482	
2	0	0	0	0	484	
3	0	0	0	0	492	
4	0	0	0	0	499	
5	0	0	0	0	503	
6	0	0	0	0	504	
7	0	0	0	0	499	
8	0	0	0	0	489	
9	0	0	0	0	479	
10	0	0	0	0	475	
11	0	0	0	0	475	
12	0	0	0	0	479	
13	0	0	0	0	484	
14	0	0	0	0	487	
15	0	0	0	0	484	
0	0	0	0	0	480	
1	0	0	0	0	476	
2	0	0	0	0	472	
3	0	0	0	0	469	
4	0	0	0	0	471	
5	0	0	0	0	476	
6	0	0	0	0	479	
7	0	0	0	0	478	
8	0	0	0	0	479	
9	0	0	0	0	480	
10	0	0	0	0	478	
11	0	0	0	0	476	
12	0	0	0	0	472	
13	0	0	0	0	474	
14	0	0	0	0	479	
15	0	0	0	0	482	
0	0	0	0	0	482	
1	0	0	0	0	481	
2	0	0	0	0	477	
3	0	0	0	0	465	
4	0	0	0	0	460	
5	0	0	0	0	460	
6	0	0	0	0	463	
7	0	0	0	0	464	
8	0	0	0	0	466	
9	0	0	0	0	464	
10	0	0	0	0	460	
11	0	0	0	0	460	
12	0	0	0	0	459	
13	0	0	0	0	460	
14	0	0	0	0	460	
15	0	0	0	0	457	
0	0	0	0	0	459	
1	0	0	0	0	461	
2	0	0	0	0	463	
3	0	0	0	0	465	
4	0	0	0	0	466	
5	0	0	0	0	467	
6	0	0	0	0	469	
7	0	0	0	0	472	
8	0	0	0	0	477	
9	0	0	0	0	477	
10	0	0	0	0	480	
11	0	0	0	0	477	
12	0	0	0	0	476	
13	0	0	0	0	480	
14	0	0	0	0	478	
15	0	0	0	0	476	
0	0	0	0	0	478	
1	0	0	0	0	482	
2	0	0	0	0	487	
3	0	0	0	0	493	
4	0	0	0	0	497	
5	0	0	0	0	491	
6	0	0	0	0	474	
7	0	0	0	0	468	
8	0	0	0	0	462	
9	0	0	0	0	457	
10	0	0	0	0	455	
11	0	0	0	0	456	
12	0	0	0	0	458	
13	0	0	0	0	459	
14	0	0	0	0	463	
15	0	0	0	0	467	
0	0	0	0	0	472	
1	0	0	0	0	476	
2	0	0	0	0	479	
3	0	0	0	0	477	
4	0	0	0	0	472	
5	0	0	0	0	469	
6	0	0	0	0	467	
7	0	0	0	0	468	
8	0	0	0	0	472	
9	0	0	0	0	473	
10	0	0	0	0	475	
11	0	0	0	0	477	
12	0	0	0	0	480	
13	0	0	0	0	485	
14	0	0	0	0	489	
15	0	0	0	0	491	
0	0	0	0	0	486	
1	0	0	0	0	482	
2	0	0	0	0	493	
3	0	0	0	0	505	
4	0	0	0	0	515	
5	0	0	0	0	515	
6	0	0	0	0	507	
7	0	0	0	0	489	
8	0	0	0	0	479	
9	0	0	0	0	482	
10	0	0	0	0	491	
11	0	0	0	0	503	
12	0	0	0	0	513	
13	0	0	0	0	515	
14	0	0	0	0	514	
15	0	0	0	0	496	
0	0	0	0	0	480	
1	0	0	0	0	476	
2	0	0	0	0	478	
3	0	0	0	0	481	
4	0	0	0	0	484	
5	0	0	0	0	489	
6	0	0	0	0	495	
7	0	0	0	0	497	
8	0	0	0	0	499	
9	0	0	0	0	497	
10	0	0	0	0	494	
11	0	0	0	0	496	
12	0	0	0	0	499	
13	0	0	0	0	501	
14	0	0	0	0	504	
15	0	0	0	0	505	
0	0	0	0	0	506	
1	0	0	0	0	506	
2	0	0	0	0	506	
3	0	0	0	0	505	
4	0	0	0	0	508	
5	0	0	0	0	509	
6	0	0	0	0	512	
7	0	0	0	0	514	
8	0	0	0	0	516	
9	0	0	0	0	511	
10	0	0	0	0	506	
11	0	0	0	0	502	
12	0	0	0	0	502	
13	0	0	0	0	503	
14	0	0	0	0	503	
15	0	0	0	0	504	
0	0	0	0	0	505	
1	0	0	0	0	506	
2	0	0	0	0	505	
3	0	0	0	0	506	
4	0	0	0	0	506	
5	0	0	0	0	504	
6	0	0	0	0	502	
7	0	0	0	0	502	
8	0	0	0	0	502	
9	0	0	0	0	503	
10	0	0	0	0	503	
11	0	0	0	0	503	
12	0	0	0	0	504	
13	0	0	0	0	503	
14	0	0	0	0	504	
15	0	0	0	0	508	
0	0	0	0	0	514	
1	0	0	0	0	518	
2	0	0	0	0	519	
3	0	0	0	0	514	
4	0	0	0	0	509	
5	0	0	0	0	509	
6	0	0	0	0	508	
7	0	0	0	0	509	
8	0	0	0	0	511	
9	0	0	0	0	511	
10	0	0	0	0	508	
11	0	0	0	0	508	
12	0	0	0	0	507	
13	0	0	0	0	506	
14	0	0	0	0	505	
15	0	0	0	0	503	
0	0	0	0	0	503	
1	0	0	0	0	501	
2	0	0	0	0	504	
3	0	0	0	0	507	
4	0	0	0	0	507	
5	0	0	0	0	506	
6	0	0	0	0	506	
7	0	0	0	0	506	
8	0	0	0	0	505	
9	0	0	0	0	506	
10	0	0	0	0	505	
11	0	0	0	0	506	
12	0	0	0	0	507	
13	0	0	0	0	507	
14	0	0	0	0	507	
15	0	0	0	0	505	
0	0	0	0	0	503	
1	0	0	0	0	502	
2	0	0	0	0	500	
3	0	0	0	0	501	
4	0	0	0	0	502	
5	0	0	0	0	503	
6	0	0	0	0	504	
7	0	0	0	0	504	
8	0	0	0	0	505	
9	0	0	0	0	507	
10	0	0	0	0	507	
11	0	0	0	0	509	
12	0	0	0	0	507	
13	0	0	0	0	508	
14	0	0	0	0	506	
15	0	0	0	0	502	
0	0	0	0	0	499	
1	0	0	0	0	499	
2	0	0	0	0	501	
3	0	0	0	0	503	
4	0	0	0	0	501	
5	0	0	0	0	500	
6	0	0	0	0	501	
7	0	0	0	0	501	
8	0	0	0	0	499	
9	0	0	0	0	498	
10	0	0	0	0	496	
11	0	0	0	0	495	
12	0	0	0	0	497	
13	0	0	0	0	497	
14	0	0	0	0	496	
15	0	0	0	0	492	
0	0	0	0	0	492	
1	0	0	0	0	494	
2	0	0	0	0	497	
3	0	0	0	0	498	
4	0	0	0	0	499	
5	0	0	0	0	498	
6	0	0	0	0	496	
7	0	0	0	0	495	
8	0	0	0	0	494	
9	0	0	0	0	493	
10	0	0	0	0	492	
11	0	0	0	0	491	
12	0	0	0	0	492	
13	0	0	0	0	489	
14	0	0	0	0	485	
15	0	0	0	0	486	
0	0	0	0	0	491	
1	0	0	0	0	494	
2	0	0	0	0	494	
3	0	0	0	0	493	
4	0	0	0	0	489	
5	0	0	0	0	485	
6	0	0	0	0	487	
7	0	0	0	0	489	
8	0	0	0	0	492	
9	0	0	0	0	492	
10	0	0	0	0	488	
11	0	0	0	0	486	
12	0	0	0	0	487	
13	0	0	0	0	486	
14	0	0	0	0	484	
15	0	0	0	0	485	
0	0	0	0	0	487	
1	0	0	0	0	487	
2	0	0	0	0	488	
3	0	0	0	0	489	
4	0	0	0	0	490	
5	0	0	0	0	488	
6	0	0	0	0	485	
7	0	0	0	0	483	
8	0	0	0	0	484	
9	0	0	0	0	484	
10	0	0	0	0	484	
11	0	0	0	0	484	
12	0	0	0	0	486	
13	0	0	0	0	486	
14	0	0	0	0	488	
15	0	0	0	0	489	
0	0	0	0	0	490	
1	0	0	0	0	489	
2	0	0	0	0	487	
3	0	0	0	0	487	
4	0	0	0	0	487	
5	0	0	0	0	487	
6	0	0	0	0	487	
7	0	0	0	0	488	
8	0	0	0	0	490	
9	0	0	0	0	491	
10	0	0	0	0	489	
11	0	0	0	0	489	
12	0	0	0	0	489	
13	0	0	0	0	488	
14	0	0	0	0	487	
15	0	0	0	0	487	
0	0	0	0	0	489	
1	0	0	0	0	491	
2	0	0	0	0	492	
3	0	0	0	0	492	
4	0	0	0	0	493	
5	0	0	0	0	496	
6	0	0	0	0	495	
7	0	0	0	0	494	
8	0	0	0	0	493	
9	0	0	0	0	493	
10	0	0	0	0	492	
11	0	0	0	0	492	
12	0	0	0	0	492	
13	0	0	0	0	491	
14	0	0	0	0	491	
15	0	0	0	0	492	
0	0	0	0	0	491	
1	0	0	0	0	491	
2	0	0	0	0	492	
3	0	0	0	0	493	
4	0	0	0	0	495	
5	0	0	0	0	495	
6	0	0	0	0	495	
7	0	0	0	0	497	
8	0	0	0	0	497	
9	0	0	0	0	496	
10	0	0	0	0	495	
11	0	0	0	0	494	
12	0	0	0	0	494	
13	0	0	0	0	494	
14	0	0	0	0	495	
15	0	0	0	0	494	
0	0	0	0	0	495	
1	0	0	0	0	494	
2	0	0	0	0	493	
3	0	0	0	0	493	
4	0	0	0	0	494	
5	0	0	0	0	495	
6	0	0	0	0	496	
7	0	0	0	0	496	
8	0	0	0	0	495	
9	0	0	0	0	493	
10	0	0	0	0	494	
11	0	0	0	0	496	
12	0	0	0	0	497	
13	0	0	0	0	499	
14	0	0	0	0	500	
15	0	0	0	0	500	
0	0	0	0	0	499	
1	0	0	0	0	500	
2	0	0	0	0	502	
3	0	0	0	0	503	
4	0	0	0	0	504	
5	0	0	0	0	505	
6	0	0	0	0	506	
7	0	0	0	0	507	
8	0	0	0	0	505	
9	0	0	0	0	504	
10	0	0	0	0	502	
11	0	0	0	0	501	
12	0	0	0	0	503	
13	0	0	0	0	502	
14	0	0	0	0	503	
15	0	0	0	0	503	
0	0	0	0	0	503	
1	0	0	0	0	504	
2	0	0	0	0	505	
3	0	0	0	0	505	
4	0	0	0	0	505	
5	0	0	0	0	504	
6	0	0	0	0	505	
7	0	0	0	0	504	
8	0	0	0	0	505	
9	0	0	0	0	506	
10	0	0	0	0	506	
11	0	0	0	0	506	
12	0	0	0	0	505	
13	0	0	0	0	505	
14	0	0	0	0	504	
15	0	0	0	0	505	
0	0	0	0	0	505	
1	0	0	0	0	505	
2	0	0	0	0	507	
3	0	0	0	0	506	
4	0	0	0	0	506	
5	0	0	0	0	505	
6	0	0	0	0	505	
7	0	0	0	0	505	
8	0	0	0	0	505	
9	0	0	0	0	506	
10	0	0	0	0	507	
11	0	0	0	0	508	
12	0	0	0	0	509	
13	0	0	0	0	509	
14	0	0	0	0	510	
15	0	0	0	0	510	
0	0	0	0	0	510	
1	0	0	0	0	510	
2	0	0	0	0	511	
3	0	0	0	0	511	
4	0	0	0	0	511	
5	0	0	0	0	510	
6	0	0	0	0	509	
7	0	0	0	0	507	
8	0	0	0	0	508	
9	0	0	0	0	508	
10	0	0	0	0	507	
11	0	0	0	0	507	
12	0	0	0	0	507	
13	0	0	0	0	507	
14	0	0	0	0	507	
15	0	0	0	0	507	
0	0	0	0	0	508	
1	0	0	0	0	508	
2	0	0	0	0	508	
3	0	0	0	0	509	
4	0	0	0	0	509	
5	0	0	0	0	510	
6	0	0	0	0	511	
7	0	0	0	0	510	
8	0	0	0	0	510	
9	0	0	0	0	510	
10	0	0	0	0	511	
11	0	0	0	0	511	
12	0	0	0	0	511	
13	0	0	0	0	511	
14	0	0	0	0	510	
15	0	0	0	0	508	
0	0	0	0	0	507	
1	0	0	0	0	506	
2	0	0	0	0	508	
3	0	0	0	0	508	
4	0	0	0	0	508	
5	0	0	0	0	508	
6	0	0	0	0	507	
7	0	0	0	0	508	
8	0	0	0	0	508	
9	0	0	0	0	508	
10	0	0	0	0	509	
11	0	0	0	0	509	
12	0	0	0	0	509	
13	0	0	0	0	509	
14	0	0	0	0	510	
15	0	0	0	0	510	
0	0	0	0	0	510	
1	0	0	0	0	510	
2	0	0	0	0	510	
3	0	0	0	0	510	
4	0	0	0	0	510	
5	0	0	0	0	509	
6	0	0	0	0	508	
7	0	0	0	0	508	
8	0	0	0	0	509	
9	0	0	0	0	509	
10	0	0	0	0	508	
11	0	0	0	0	509	
12	0	0	0	0	509	
13	0	0	0	0	510	
14	0	0	0	0	510	
15	0	0	0	0	511	
0	0	0	0	0	512	
1	0	0	0	0	512	
2	0	0	0	0	512	
3	0	0	0	0	512	
4	0	0	0	0	512	
5	0	0	0	0	512	
6	0	0	0	0	512	
7	0	0	0	0	512	
8	0	0	0	0	512	
9	0	0	0	0	512	
10	0	0	0	0	513	
11	0	0	0	0	513	
12	0	0	0	0	513	
13	0	0	0	0	514	
14	0	0	0	0	514	
15	0	0	0	0	513	
0	0	0	0	0	512	
1	0	0	0	0	511	
2	0	0	0	0	511	
3	0	0	0	0	507	
4	0	0	0	0	506	
5	0	0	0	0	504	
6	0	0	0	0	502	
7	0	0	0	0	499	
8	0	0	0	0	499	
9	0	0	0	0	496	
10	0	0	0	0	495	
11	0	0	0	0	493	
12	0	0	0	0	492	
13	0	0	0	0	489	
14	0	0	0	0	488	
15	0	0	0	0	487	
0	0	0	0	0	486	
1	0	0	0	0	486	
2	0	0	0	0	485	
3	0	0	0	0	486	
4	0	0	0	0	486	
5	0	0	0	0	485	
6	0	0	0	0	485	
7	0	0	0	0	483	
8	0	0	0	0	483	
9	0	0	0	0	483	
10	0	0	0	0	483	
11	0	0	0	0	483	
12	0	0	0	0	483	
13	0	0	0	0	483	
14	0	0	0	0	481	
15	0	0	0	0	479	
0	0	0	0	0	477	
1	0	0	0	0	474	
2	0	0	0	0	471	
3	0	0	0	0	469	
4	0	0	0	0	467	
5	0	0	0	0	467	
6	0	0	0	0	466	
7	0	0	0	0	467	
8	0	0	0	0	469	
9	0	0	0	0	470	
10	0	0	0	0	470	
11	0	0	0	0	470	
12	0	0	0	0	472	
13	0	0	0	0	474	
14	0	0	0	0	475	
15	0	0	0	0	475	
0	0	0	0	0	475	
1	0	0	0	0	477	
2	0	0	0	0	478	
3	0	0	0	0	481	
4	0	0	0	0	482	
5	0	0	0	0	483	
6	0	0	0	0	487	
7	0	0	0	0	489	
8	0	0	0	0	492	
9	0	0	0	0	495	
10	0	0	0	0	497	
11	0	0	0	0	500	
12	0	0	0	0	503	
13	0	0	0	0	504	
14	0	0	0	0	505	
15	0	0	0	0	506	
0	0	0	0	0	508	
1	0	0	0	0	510	
2	0	0	0	0	511	
3	0	0	0	0	512	
4	0	0	0	0	512	
5	0	0	0	0	512	
6	0	0	0	0	512	
7	0	0	0	0	513	
8	0	0	0	0	515	
9	0	0	0	0	516	
10	0	0	0	0	519	
11	0	0	0	0	519	
12	0	0	0	0	521	
13	0	0	0	0	524	
14	0	0	0	0	526	
15	0	0	0	0	527	
0	0	0	0	0	529	
1	0	0	0	0	531	
2	0	0	0	0	534	
3	0	0	0	0	536	
4	0	0	0	0	537	
5	0	0	0	0	538	
6	0	0	0	0	539	
7	0	0	0	0	539	
8	0	0	0	0	537	
9	0	0	0	0	538	
10	0	0	0	0	540	
11	0	0	0	0	542	
12	0	0	0	0	544	
13	0	0	0	0	544	
14	0	0	0	0	546	
15	0	0	0	0	546	
0	0	0	0	0	546	
1	0	0	0	0	548	
2	0	0	0	0	548	
3	0	0	0	0	548	
4	0	0	0	0	547	
5	0	0	0	0	547	
6	0	0	0	0	549	
7	0	0	0	0	549	
8	0	0	0	0	550	
9	0	0	0	0	550	
10	0	0	0	0	550	
11	0	0	0	0	550	
12	0	0	0	0	549	
13	0	0	0	0	546	
14	0	0	0	0	544	
15	0	0	0	0	542	
0	0	0	0	0	540	
1	0	0	0	0	540	
2	0	0	0	0	538	
3	0	0	0	0	538	
4	0	0	0	0	539	
5	0	0	0	0	539	
6	0	0	0	0	539	
7	0	0	0	0	540	
8	0	0	0	0	540	
9	0	0	0	0	540	
10	0	0	0	0	540	
11	0	0	0	0	540	
12	0	0	0	0	540	
13	0	0	0	0	541	
14	0	0	0	0	541	
15	0	0	0	0	543	
0	0	0	0	0	545	
1	0	0	0	0	549	
2	0	0	0	0	554	
3	0	0	0	0	559	
4	0	0	0	0	564	
5	0	0	0	0	567	
6	0	0	0	0	570	
7	0	0	0	0	571	
8	0	0	0	0	572	
9	0	0	0	0	574	
10	0	0	0	0	575	
11	0	0	0	0	579	
12	0	0	0	0	581	
13	0	0	0	0	584	
14	0	0	0	0	585	
15	0	0	0	0	582	
0	0	0	0	0	576	
1	0	0	0	0	566	
2	0	0	0	0	553	
3	0	0	0	0	536	
4	0	0	0	0	514	
5	0	0	0	0	490	
6	0	0	0	0	464	
7	0	0	0	0	438	
8	0	0	0	0	412	
9	0	0	0	0	383	
10	0	0	0	0	353	
11	0	0	0	0	318	
12	0	0	0	0	281	
13	0	0	0	0	239	
14	0	0	0	0	192	
15	0	0	0	0	148	
0	0	0	0	0	109	
1	0	0	0	0	80	
2	0	0	0	0	63	
3	0	0	0	0	61	
4	0	0	0	0	71	
5	0	0	0	0	87	
6	0	0	0	0	109	
7	0	0	0	0	140	
8	0	0	0	0	180	
9	0	0	0	0	227	
10	0	0	0	0	274	
11	0	0	0	0	321	
12	0	0	0	0	367	
13	0	0	0	0	408	
14	0	0	0	0	444	
15	0	0	0	0	478	
0	0	0	0	0	508	
1	0	0	0	0	531	
2	0	0	0	0	556	
3	0	0	0	0	580	
4	0	0	0	0	604	
5	0	0	0	0	627	
6	0	0	0	0	648	
7	0	0	0	0	667	
8	0	0	0	0	685	
9	0	0	0	0	700	
10	0	0	0	0	715	
11	0	0	0	0	727	
12	0	0	0	0	734	
13	0	0	0	0	741	
14	0	0	0	0	744	
15	0	0	0	0	744	
0	0	0	0	0	742	
1	0	0	0	0	736	
2	0	0	0	0	729	
3	0	0	0	0	720	
4	0	0	0	0	711	
5	0	0	0	0	703	
6	0	0	0	0	692	
7	0	0	0	0	683	
8	0	0	0	0	672	
9	0	0	0	0	664	
10	0	0	0	0	657	
11	0	0	0	0	651	
12	0	0	0	0	644	
13	0	0	0	0	636	
14	0	0	0	0	630	
15	0	0	0	0	623	
0	0	0	0	0	615	
1	0	0	0	0	607	
2	0	0	0	0	600	
3	0	0	0	0	594	
4	0	0	0	0	590	
5	0	0	0	0	584	
6	0	0	0	0	579	
7	0	0	0	0	575	
8	0	0	0	0	571	
9	0	0	0	0	568	
10	0	0	0	0	564	
11	0	0	0	0	562	
12	0	0	0	0	559	
13	0	0	0	0	556	
14	0	0	0	0	555	
15	0	0	0	0	554	
0	0	0	0	0	553	
1	0	0	0	0	553	
2	0	0	0	0	552	
3	0	0	0	0	551	
4	0	0	0	0	550	
5	0	0	0	0	549	
6	0	0	0	0	547	
7	0	0	0	0	546	
8	0	0	0	0	546	
9	0	0	0	0	544	
10	0	0	0	0	543	
11	0	0	0	0	542	
12	0	0	0	0	541	
13	0	0	0	0	540	
14	0	0	0	0	539	
15	0	0	0	0	540	
0	0	0	0	0	537	
1	0	0	0	0	537	
2	0	0	0	0	536	
3	0	0	0	0	536	
4	0	0	0	0	536	
5	0	0	0	0	536	
6	0	0	0	0	537	
7	0	0	0	0	537	
8	0	0	0	0	536	
9	0	0	0	0	536	
10	0	0	0	0	536	
11	0	0	0	0	535	
12	0	0	0	0	534	
13	0	0	0	0	533	
14	0	0	0	0	532	
15	0	0	0	0	531	
0	0	0	0	0	530	
1	0	0	0	0	530	
2	0	0	0	0	529	
3	0	0	0	0	529	
4	0	0	0	0	528	
5	0	0	0	0	527	
6	0	0	0	0	526	
7	0	0	0	0	525	
8	0	0	0	0	524	
9	0	0	0	0	523	
10	0	0	0	0	523	
11	0	0	0	0	523	
12	0	0	0	0	523	
13	0	0	0	0	523	
14	0	0	0	0	523	
15	0	0	0	0	523	
0	0	0	0	0	521	
1	0	0	0	0	520	
2	0	0	0	0	519	
3	0	0	0	0	518	
4	0	0	0	0	518	
5	0	0	0	0	518	
6	0	0	0	0	515	
7	0	0	0	0	515	
8	0	0	0	0	514	
9	0	0	0	0	513	
10	0	0	0	0	512	
11	0	0	0	0	512	
12	0	0	0	0	512	
13	0	0	0	0	511	
14	0	0	0	0	509	
15	0	0	0	0	508	
0	0	0	0	0	508	
1	0	0	0	0	508	
2	0	0	0	0	508	
3	0	0	0	0	506	
4	0	0	0	0	505	
5	0	0	0	0	505	
6	0	0	0	0	506	
7	0	0	0	0	507	
8	0	0	0	0	507	
9	0	0	0	0	507	
10	0	0	0	0	506	
11	0	0	0	0	506	
12	0	0	0	0	505	
13	0	0	0	0	504	
14	0	0	0	0	504	
15	0	0	0	0	503	
0	0	0	0	0	502	
1	0	0	0	0	501	
2	0	0	0	0	501	
3	0	0	0	0	500	
4	0	0	0	0	499	
5	0	0	0	0	499	
6	0	0	0	0	497	
7	0	0	0	0	497	
8	0	0	0	0	498	
9	0	0	0	0	497	
10	0	0	0	0	498	
11	0	0	0	0	497	
12	0	0	0	0	496	
13	0	0	0	0	495	
14	0	0	0	0	493	
15	0	0	0	0	493	
0	0	0	0	0	493	
1	0	0	0	0	493	
2	0	0	0	0	493	
3	0	0	0	0	493	
4	0	0	0	0	494	
5	0	0	0	0	493	
6	0	0	0	0	493	
7	0	0	0	0	493	
8	0	0	0	0	492	
9	0	0	0	0	494	
10	0	0	0	0	492	
11	0	0	0	0	490	
12	0	0	0	0	489	
13	0	0	0	0	488	
14	0	0	0	0	487	
15	0	0	0	0	485	
0	0	0	0	0	484	
1	0	0	0	0	483	
2	0	0	0	0	482	
3	0	0	0	0	482	
4	0	0	0	0	480	
5	0	0	0	0	480	
6	0	0	0	0	479	
7	0	0	0	0	478	
8	0	0	0	0	478	
9	0	0	0	0	477	
10	0	0	0	0	476	
11	0	0	0	0	475	
12	0	0	0	0	474	
13	0	0	0	0	474	
14	0	0	0	0	474	
15	0	0	0	0	473	
0	0	0	0	0	472	
1	0	0	0	0	470	
2	0	0	0	0	469	
3	0	0	0	0	469	
4	0	0	0	0	470	
5	0	0	0	0	469	
6	0	0	0	0	467	
7	0	0	0	0	467	
8	0	0	0	0	466	
9	0	0	0	0	465	
10	0	0	0	0	464	
11	0	0	0	0	463	
12	0	0	0	0	464	
13	0	0	0	0	464	
14	0	0	0	0	465	
15	0	0	0	0	464	
0	0	0	0	0	464	
1	0	0	0	0	465	
2	0	0	0	0	466	
3	0	0	0	0	467	
4	0	0	0	0	467	
5	0	0	0	0	467	
6	0	0	0	0	467	
7	0	0	0	0	466	
8	0	0	0	0	467	
9	0	0	0	0	467	
10	0	0	0	0	468	
11	0	0	0	0	470	
12	0	0	0	0	471	
13	0	0	0	0	472	
14	0	0	0	0	473	
15	0	0	0	0	473	
0	0	0	0	0	474	
1	0	0	0	0	475	
2	0	0	0	0	475	
3	0	0	0	0	476	
4	0	0	0	0	476	
5	0	0	0	0	477	
6	0	0	0	0	478	
7	0	0	0	0	479	
8	0	0	0	0	479	
9	0	0	0	0	480	
10	0	0	0	0	483	
11	0	0	0	0	483	
12	0	0	0	0	483	
13	0	0	0	0	481	
14	0	0	0	0	482	
15	0	0	0	0	484	
0	0	0	0	0	486	
1	0	0	0	0	489	
2	0	0	0	0	490	
3	0	0	0	0	490	
4	0	0	0	0	491	
5	0	0	0	0	491	
6	0	0	0	0	492	
7	0	0	0	0	494	
8	0	0	0	0	494	
9	0	0	0	0	496	
10	0	0	0	0	496	
11	0	0	0	0	498	
12	0	0	0	0	498	
13	0	0	0	0	498	
14	0	0	0	0	499	
15	0	0	0	0	499	
0	0	0	0	0	501	
1	0	0	0	0	503	
2	0	0	0	0	503	
3	0	0	0	0	503	
4	0	0	0	0	504	
5	0	0	0	0	505	
6	0	0	0	0	507	
7	0	0	0	0	508	
8	0	0	0	0	510	
9	0	0	0	0	511	
10	0	0	0	0	511	
11	0	0	0	0	512	
12	0	0	0	0	514	
13	0	0	0	0	515	
14	0	0	0	0	515	
15	0	0	0	0	516	
0	0	0	0	0	517	
1	0	0	0	0	518	
2	0	0	0	0	518	
3	0	0	0	0	518	
4	0	0	0	0	519	
5	0	0	0	0	519	
6	0	0	0	0	519	
7	0	0	0	0	520	
8	0	0	0	0	520	
9	0	0	0	0	519	
10	0	0	0	0	519	
11	0	0	0	0	520	
12	0	0	0	0	522	
13	0	0	0	0	522	
14	0	0	0	0	522	
15	0	0	0	0	521	
0	0	0	0	0	521	
1	0	0	0	0	523	
2	0	0	0	0	524	
3	0	0	0	0	525	
4	0	0	0	0	526	
5	0	0	0	0	526	
6	0	0	0	0	525	
7	0	0	0	0	524	
8	0	0	0	0	524	
9	0	0	0	0	523	
10	0	0	0	0	522	
11	0	0	0	0	522	
12	0	0	0	0	520	
13	0	0	0	0	519	
14	0	0	0	0	519	
15	0	0	0	0	519	
0	0	0	0	0	519	
1	0	0	0	0	520	
2	0	0	0	0	520	
3	0	0	0	0	521	
4	0	0	0	0	522	
5	0	0	0	0	522	
6	0	0	0	0	522	
7	0	0	0	0	521	
8	0	0	0	0	522	
9	0	0	0	0	522	
10	0	0	0	0	523	
11	0	0	0	0	523	
12	0	0	0	0	523	
13	0	0	0	0	524	
14	0	0	0	0	524	
15	0	0	0	0	524	
0	0	0	0	0	524	
1	0	0	0	0	524	
2	0	0	0	0	523	
3	0	0	0	0	523	
4	0	0	0	0	523	
5	0	0	0	0	522	
6	0	0	0	0	522	
7	0	0	0	0	521	
8	0	0	0	0	521	
9	0	0	0	0	522	
10	0	0	0	0	522	
11	0	0	0	0	522	
12	0	0	0	0	523	
13	0	0	0	0	522	
14	0	0	0	0	522	
15	0	0	0	0	521	
0	0	0	0	0	521	
1	0	0	0	0	520	
2	0	0	0	0	519	
3	0	0	0	0	520	
4	0	0	0	0	521	
5	0	0	0	0	520	
6	0	0	0	0	521	
7	0	0	0	0	523	
8	0	0	0	0	523	
9	0	0	0	0	521	
10	0	0	0	0	519	
11	0	0	0	0	519	
12	0	0	0	0	518	
13	0	0	0	0	518	
14	0	0	0	0	518	
15	0	0	0	0	516	
0	0	0	0	0	514	
1	0	0	0	0	512	
2	0	0	0	0	512	
3	0	0	0	0	513	
4	0	0	0	0	513	
5	0	0	0	0	513	
6	0	0	0	0	512	
7	0	0	0	0	512	
8	0	0	0	0	512	
9	0	0	0	0	513	
10	0	0	0	0	512	
11	0	0	0	0	511	
12	0	0	0	0	512	
13	0	0	0	0	511	
14	0	0	0	0	511	
15	0	0	0	0	512	
0	0	0	0	0	512	
1	0	0	0	0	510	
2	0	0	0	0	509	
3	0	0	0	0	509	
4	0	0	0	0	508	
5	0	0	0	0	507	
6	0	0	0	0	507	
7	0	0	0	0	507	
8	0	0	0	0	507	
9	0	0	0	0	507	
10	0	0	0	0	507	
11	0	0	0	0	508	
12	0	0	0	0	508	
13	0	0	0	0	508	
14	0	0	0	0	508	
15	0	0	0	0	509	
0	0	0	0	0	509	
1	0	0	0	0	507	
2	0	0	0	0	505	
3	0	0	0	0	505	
4	0	0	0	0	504	
5	0	0	0	0	505	
6	0	0	0	0	506	
7	0	0	0	0	505	
8	0	0	0	0	505	
9	0	0	0	0	504	
10	0	0	0	0	505	
11	0	0	0	0	505	
12	0	0	0	0	504	
13	0	0	0	0	505	
14	0	0	0	0	506	
15	0	0	0	0	506	
0	0	0	0	0	504	
1	0	0	0	0	503	
2	0	0	0	0	503	
3	0	0	0	0	503	
4	0	0	0	0	505	
5	0	0	0	0	505	
6	0	0	0	0	505	
7	0	0	0	0	505	
8	0	0	0	0	504	
9	0	0	0	0	504	
10	0	0	0	0	505	
11	0	0	0	0	504	
12	0	0	0	0	504	
13	0	0	0	0	504	
14	0	0	0	0	504	
15	0	0	0	0	505	
0	0	0	0	0	506	
1	0	0	0	0	506	
2	0	0	0	0	507	
3	0	0	0	0	507	
4	0	0	0	0	507	
5	0	0	0	0	507	
6	0	0	0	0	507	
7	0	0	0	0	505	
8	0	0	0	0	506	
9	0	0	0	0	505	
10	0	0	0	0	504	
11	0	0	0	0	504	
12	0	0	0	0	503	
13	0	0	0	0	503	
14	0	0	0	0	504	
15	0	0	0	0	504	
0	0	0	0	0	506	
1	0	0	0	0	507	
2	0	0	0	0	510	
3	0	0	0	0	511	
4	0	0	0	0	511	
5	0	0	0	0	510	
6	0	0	0	0	510	
7	0	0	0	0	510	
8	0	0	0	0	509	
9	0	0	0	0	509	
10	0	0	0	0	509	
11	0	0	0	0	510	
12	0	0	0	0	511	
13	0	0	0	0	511	
14	0	0	0	0	511	
15	0	0	0	0	511	
0	0	0	0	0	511	
1	0	0	0	0	511	
2	0	0	0	0	510	
3	0	0	0	0	510	
4	0	0	0	0	510	
5	0	0	0	0	508	
6	0	0	0	0	509	
7	0	0	0	0	509	
8	0	0	0	0	511	
9	0	0	0	0	511	
10	0	0	0	0	510	
11	0	0	0	0	510	
12	0	0	0	0	511	
13	0	0	0	0	511	
14	0	0	0	0	513	
15	0	0	0	0	513	
0	0	0	0	0	515	
1	0	0	0	0	514	
2	0	0	0	0	514	
3	0	0	0	0	516	
4	0	0	0	0	517	
5	0	0	0	0	516	
6	0	0	0	0	515	
7	0	0	0	0	513	
8	0	0	0	0	512	
9	0	0	0	0	511	
10	0	0	0	0	512	
11	0	0	0	0	511	
12	0	0	0	0	511	
13	0	0	0	0	511	
14	0	0	0	0	510	
15	0	0	0	0	512	
0	0	0	0	0	512	
1	0	0	0	0	513	
2	0	0	0	0	513	
3	0	0	0	0	513	
4	0	0	0	0	515	
5	0	0	0	0	515	
6	0	0	0	0	516	
7	0	0	0	0	516	
8	0	0	0	0	515	
9	0	0	0	0	517	
10	0	0	0	0	515	
11	0	0	0	0	515	
12	0	0	0	0	515	
13	0	0	0	0	514	
14	0	0	0	0	513	
15	0	0	0	0	512	
0	0	0	0	0	513	
1	0	0	0	0	514	
2	0	0	0	0	515	
3	0	0	0	0	517	
4	0	0	0	0	517	
5	0	0	0	0	516	
6	0	0	0	0	516	
7	0	0	0	0	514	
8	0	0	0	0	513	
9	0	0	0	0	513	
10	0	0	0	0	511	
11	0	0	0	0	510	
12	0	0	0	0	509	
13	0	0	0	0	509	
14	0	0	0	0	509	
15	0	0	0	0	507	
0	0	0	0	0	507	
1	0	0	0	0	506	
2	0	0	0	0	506	
3	0	0	0	0	506	
4	0	0	0	0	507	
5	0	0	0	0	508	
6	0	0	0	0	509	
7	0	0	0	0	511	
8	0	0	0	0	510	
9	0	0	0	0	509	
10	0	0	0	0	509	
11	0	0	0	0	508	
12	0	0	0	0	509	
13	0	0	0	0	509	
14	0	0	0	0	511	
15	0	0	0	0	511	
0	0	0	0	0	511	
1	0	0	0	0	512	
2	0	0	0	0	512	
3	0	0	0	0	514	
4	0	0	0	0	514	
5	0	0	0	0	514	
6	0	0	0	0	512	
7	0	0	0	0	511	
8	0	0	0	0	510	
9	0	0	0	0	510	
10	0	0	0	0	508	
11	0	0	0	0	508	
12	0	0	0	0	509	
13	0	0	0	0	510	
14	0	0	0	0	511	
15	0	0	0	0	513	
0	0	0	0	0	515	
1	0	0	0	0	515	
2	0	0	0	0	516	
3	0	0	0	0	516	
4	0	0	0	0	515	
5	0	0	0	0	517	
6	0	0	0	0	516	
7	0	0	0	0	515	
8	0	0	0	0	513	
9	0	0	0	0	512	
10	0	0	0	0	514	
11	0	0	0	0	515	
12	0	0	0	0	517	
13	0	0	0	0	517	
14	0	0	0	0	515	
15	0	0	0	0	516	
0	0	0	0	0	516	
1	0	0	0	0	516	
2	0	0	0	0	517	
3	0	0	0	0	518	
4	0	0	0	0	519	
5	0	0	0	0	519	
6	0	0	0	0	520	
7	0	0	0	0	521	
8	0	0	0	0	522	
9	0	0	0	0	522	
10	0	0	0	0	521	
11	0	0	0	0	520	
12	0	0	0	0	519	
13	0	0	0	0	518	
14	0	0	0	0	519	
15	0	0	0	0	518	
0	0	0	0	0	520	
1	0	0	0	0	520	
2	0	0	0	0	520	
3	0	0	0	0	520	
4	0	0	0	0	521	
5	0	0	0	0	520	
6	0	0	0	0	520	
7	0	0	0	0	520	
8	0	0	0	0	521	
9	0	0	0	0	521	
10	0	0	0	0	523	
11	0	0	0	0	523	
12	0	0	0	0	523	
13	0	0	0	0	523	
14	0	0	0	0	522	
15	0	0	0	0	523	
0	0	0	0	0	523	
1	0	0	0	0	521	
2	0	0	0	0	520	
3	0	0	0	0	520	
4	0	0	0	0	519	
5	0	0	0	0	519	
6	0	0	0	0	518	
7	0	0	0	0	518	
8	0	0	0	0	516	
9	0	0	0	0	516	
10	0	0	0	0	516	
11	0	0	0	0	516	
12	0	0	0	0	518	
13	0	0	0	0	519	
14	0	0	0	0	520	
15	0	0	0	0	521	
0	0	0	0	0	523	
1	0	0	0	0	523	
2	0	0	0	0	523	
3	0	0	0	0	523	
4	0	0	0	0	522	
5	0	0	0	0	521	
6	0	0	0	0	523	
7	0	0	0	0	523	
8	0	0	0	0	522	
9	0	0	0	0	522	
10	0	0	0	0	521	
11	0	0	0	0	521	
12	0	0	0	0	522	
13	0	0	0	0	522	
14	0	0	0	0	523	
15	0	0	0	0	523	
0	0	0	0	0	522	
1	0	0	0	0	524	
2	0	0	0	0	524	
3	0	0	0	0	524	
4	0	0	0	0	522	
5	0	0	0	0	521	
6	0	0	0	0	520	
7	0	0	0	0	519	
8	0	0	0	0	519	
9	0	0	0	0	518	
10	0	0	0	0	518	
11	0	0	0	0	519	
12	0	0	0	0	519	
13	0	0	0	0	519	
14	0	0	0	0	518	
15	0	0	0	0	517	
0	0	0	0	0	515	
1	0	0	0	0	515	
2	0	0	0	0	513	
3	0	0	0	0	510	
4	0	0	0	0	509	
5	0	0	0	0	508	
6	0	0	0	0	505	
7	0	0	0	0	503	
8	0	0	0	0	500	
9	0	0	0	0	499	
10	0	0	0	0	499	
11	0	0	0	0	499	
12	0	0	0	0	498	
13	0	0	0	0	496	
14	0	0	0	0	496	
15	0	0	0	0	496	
0	0	0	0	0	497	
1	0	0	0	0	497	
2	0	0	0	0	496	
3	0	0	0	0	497	
4	0	0	0	0	496	
5	0	0	0	0	496	
6	0	0	0	0	494	
7	0	0	0	0	492	
8	0	0	0	0	491	
9	0	0	0	0	489	
10	0	0	0	0	488	
11	0	0	0	0	488	
12	0	0	0	0	485	
13	0	0	0	0	483	
14	0	0	0	0	480	
15	0	0	0	0	478	
0	0	0	0	0	477	
1	0	0	0	0	477	
2	0	0	0	0	476	
3	0	0	0	0	476	
4	0	0	0	0	477	
5	0	0	0	0	478	
6	0	0	0	0	480	
7	0	0	0	0	481	
8	0	0	0	0	481	
9	0	0	0	0	482	
10	0	0	0	0	482	
11	0	0	0	0	481	
12	0	0	0	0	482	
13	0	0	0	0	483	
14	0	0	0	0	483	
15	0	0	0	0	484	
0	0	0	0	0	485	
1	0	0	0	0	488	
2	0	0	0	0	491	
3	0	0	0	0	494	
4	0	0	0	0	498	
5	0	0	0	0	501	
6	0	0	0	0	505	
7	0	0	0	0	510	
8	0	0	0	0	512	
9	0	0	0	0	514	
10	0	0	0	0	515	
11	0	0	0	0	515	
12	0	0	0	0	515	
13	0	0	0	0	515	
14	0	0	0	0	517	
15	0	0	0	0	517	
0	0	0	0	0	517	
1	0	0	0	0	517	
2	0	0	0	0	517	
3	0	0	0	0	516	
4	0	0	0	0	514	
5	0	0	0	0	513	
6	0	0	0	0	513	
7	0	0	0	0	515	
8	0	0	0	0	516	
9	0	0	0	0	518	
10	0	0	0	0	520	
11	0	0	0	0	522	
12	0	0	0	0	523	
13	0	0	0	0	524	
14	0	0	0	0	525	
15	0	0	0	0	528	
0	0	0	0	0	529	
1	0	0	0	0	531	
2	0	0	0	0	533	
3	0	0	0	0	534	
4	0	0	0	0	536	
5	0	0	0	0	536	
6	0	0	0	0	536	
7	0	0	0	0	538	
8	0	0	0	0	539	
9	0	0	0	0	539	
10	0	0	0	0	539	
11	0	0	0	0	538	
12	0	0	0	0	536	
13	0	0	0	0	536	
14	0	0	0	0	537	
15	0	0	0	0	537	
0	0	0	0	0	537	
1	0	0	0	0	537	
2	0	0	0	0	537	
3	0	0	0	0	536	
4	0	0	0	0	535	
5	0	0	0	0	533	
6	0	0	0	0	531	
7	0	0	0	0	529	
8	0	0	0	0	528	
9	0	0	0	0	528	
10	0	0	0	0	528	
11	0	0	0	0	528	
12	0	0	0	0	528	
13	0	0	0	0	529	
14	0	0	0	0	529	
15	0	0	0	0	529	
0	0	0	0	0	528	
1	0	0	0	0	528	
2	0	0	0	0	531	
3	0	0	0	0	532	
4	0	0	0	0	533	
5	0	0	0	0	534	
6	0	0	0	0	534	
7	0	0	0	0	534	
8	0	0	0	0	533	
9	0	0	0	0	533	
10	0	0	0	0	534	
11	0	0	0	0	536	
12	0	0	0	0	541	
13	0	0	0	0	545	
14	0	0	0	0	551	
15	0	0	0	0	555	
0	0	0	0	0	558	
1	0	0	0	0	561	
2	0	0	0	0	564	
3	0	0	0	0	565	
4	0	0	0	0	565	
5	0	0	0	0	565	
6	0	0	0	0	567	
7	0	0	0	0	570	
8	0	0	0	0	573	
9	0	0	0	0	577	
10	0	0	0	0	577	
11	0	0	0	0	575	
12	0	0	0	0	568	
13	0	0	0	0	559	
14	0	0	0	0	546	
15	0	0	0	0	529	
0	0	0	0	0	511	
1	0	0	0	0	487	
2	0	0	0	0	465	
3	0	0	0	0	441	
4	0	0	0	0	419	
5	0	0	0	0	396	
6	0	0	0	0	368	
7	0	0	0	0	337	
8	0	0	0	0	302	
9	0	0	0	0	262	
10	0	0	0	0	218	
11	0	0	0	0	178	
12	0	0	0	0	149	
13	0	0	0	0	129	
14	0	0	0	0	123	
15	0	0	0	0	130	
0	0	0	0	0	147	
1	0	0	0	0	168	
2	0	0	0	0	195	
3	0	0	0	0	228	
4	0	0	0	0	264	
5	0	0	0	0	303	
6	0	0	0	0	343	
7	0	0	0	0	381	
8	0	0	0	0	415	
9	0	0	0	0	446	
10	0	0	0	0	471	
11	0	0	0	0	490	
12	0	0	0	0	504	
13	0	0	0	0	513	
14	0	0	0	0	524	
15	0	0	0	0	534	
0	0	0	0	0	547	
1	0	0	0	0	560	
2	0	0	0	0	574	
3	0	0	0	0	588	
4	0	0	0	0	601	
5	0	0	0	0	615	
6	0	0	0	0	630	
7	0	0	0	0	647	
8	0	0	0	0	666	
9	0	0	0	0	679	
10	0	0	0	0	686	
11	0	0	0	0	688	
12	0	0	0	0	688	
13	0	0	0	0	687	
14	0	0	0	0	683	
15	0	0	0	0	680	
0	0	0	0	0	674	
1	0	0	0	0	668	
2	0	0	0	0	662	
3	0	0	0	0	657	
4	0	0	0	0	652	
5	0	0	0	0	647	
6	0	0	0	0	642	
7	0	0	0	0	638	
8	0	0	0	0	632	
9	0	0	0	0	627	
10	0	0	0	0	620	
11	0	0	0	0	614	
12	0	0	0	0	608	
13	0	0	0	0	602	
14	0	0	0	0	596	
15	0	0	0	0	589	
0	0	0	0	0	582	
1	0	0	0	0	575	
2	0	0	0	0	570	
3	0	0	0	0	566	
4	0	0	0	0	561	
5	0	0	0	0	557	
6	0	0	0	0	554	
7	0	0	0	0	551	
8	0	0	0	0	549	
9	0	0	0	0	548	
10	0	0	0	0	547	
11	0	0	0	0	545	
12	0	0	0	0	543	
13	0	0	0	0	542	
14	0	0	0	0	540	
15	0	0	0	0	537	
0	0	0	0	0	537	
1	0	0	0	0	537	
2	0	0	0	0	536	
3	0	0	0	0	537	
4	0	0	0	0	537	
5	0	0	0	0	536	
6	0	0	0	0	535	
7	0	0	0	0	534	
8	0	0	0	0	534	
9	0	0	0	0	532	
10	0	0	0	0	531	
11	0	0	0	0	529	
12	0	0	0	0	529	
13	0	0	0	0	529	
14	0	0	0	0	527	
15	0	0	0	0	527	
0	0	0	0	0	527	
1	0	0	0	0	524	
2	0	0	0	0	525	
3	0	0	0	0	524	
4	0	0	0	0	525	
5	0	0	0	0	525	
6	0	0	0	0	524	
7	0	0	0	0	523	
8	0	0	0	0	523	
9	0	0	0	0	524	
10	0	0	0	0	523	
11	0	0	0	0	523	
12	0	0	0	0	523	
13	0	0	0	0	523	
14	0	0	0	0	522	
15	0	0	0	0	520	
0	0	0	0	0	518	
1	0	0	0	0	517	
2	0	0	0	0	516	
3	0	0	0	0	515	
4	0	0	0	0	513	
5	0	0	0	0	512	
6	0	0	0	0	511	
7	0	0	0	0	512	
8	0	0	0	0	512	
9	0	0	0	0	511	
10	0	0	0	0	511	
11	0	0	0	0	512	
12	0	0	0	0	512	
13	0	0	0	0	512	
14	0	0	0	0	511	
15	0	0	0	0	512	
0	0	0	0	0	512	
1	0	0	0	0	513	
2	0	0	0	0	512	
3	0	0	0	0	510	
4	0	0	0	0	508	
5	0	0	0	0	507	
6	0	0	0	0	507	
7	0	0	0	0	507	
8	0	0	0	0	507	
9	0	0	0	0	504	
10	0	0	0	0	504	
11	0	0	0	0	505	
12	0	0	0	0	506	
13	0	0	0	0	505	
14	0	0	0	0	505	
15	0	0	0	0	505	
0	0	0	0	0	504	
1	0	0	0	0	503	
2	0	0	0	0	502	
3	0	0	0	0	501	
4	0	0	0	0	502	
5	0	0	0	0	502	
6	0	0	0	0	502	
7	0	0	0	0	500	
8	0	0	0	0	500	
9	0	0	0	0	499	
10	0	0	0	0	500	
11	0	0	0	0	500	
12	0	0	0	0	499	
13	0	0	0	0	499	
14	0	0	0	0	499	
15	0	0	0	0	499	
0	0	0	0	0	499	
1	0	0	0	0	499	
2	0	0	0	0	499	
3	0	0	0	0	499	
4	0	0	0	0	498	
5	0	0	0	0	497	
6	0	0	0	0	495	
7	0	0	0	0	494	
8	0	0	0	0	495	
9	0	0	0	0	494	
10	0	0	0	0	493	
11	0	0	0	0	492	
12	0	0	0	0	493	
13	0	0	0	0	493	
14	0	0	0	0	492	
15	0	0	0	0	493	
0	0	0	0	0	494	
1	0	0	0	0	493	
2	0	0	0	0	493	
3	0	0	0	0	492	
4	0	0	0	0	492	
5	0	0	0	0	490	
6	0	0	0	0	488	
7	0	0	0	0	487	
8	0	0	0	0	485	
9	0	0	0	0	484	
10	0	0	0	0	483	
11	0	0	0	0	482	
12	0	0	0	0	482	
13	0	0	0	0	480	
14	0	0	0	0	480	
15	0	0	0	0	480	
0	0	0	0	0	479	
1	0	0	0	0	480	
2	0	0	0	0	481	
3	0	0	0	0	481	
4	0	0	0	0	481	
5	0	0	0	0	480	
6	0	0	0	0	479	
7	0	0	0	0	478	
8	0	0	0	0	478	
9	0	0	0	0	477	
10	0	0	0	0	476	
11	0	0	0	0	476	
12	0	0	0	0	474	
13	0	0	0	0	473	
14	0	0	0	0	472	
15	0	0	0	0	472	
0	0	0	0	0	472	
1	0	0	0	0	471	
2	0	0	0	0	471	
3	0	0	0	0	468	
4	0	0	0	0	467	
5	0	0	0	0	465	
6	0	0	0	0	464	
7	0	0	0	0	464	
8	0	0	0	0	464	
9	0	0	0	0	464	
10	0	0	0	0	464	
11	0	0	0	0	463	
12	0	0	0	0	465	
13	0	0	0	0	465	
14	0	0	0	0	465	
15	0	0	0	0	465	
0	0	0	0	0	466	
1	0	0	0	0	467	
2	0	0	0	0	468	
3	0	0	0	0	469	
4	0	0	0	0	469	
5	0	0	0	0	469	
6	0	0	0	0	471	
7	0	0	0	0	471	
8	0	0	0	0	472	
9	0	0	0	0	472	
10	0	0	0	0	472	
11	0	0	0	0	473	
12	0	0	0	0	475	
13	0	0	0	0	475	
14	0	0	0	0	476	
15	0	0	0	0	475	
0	0	0	0	0	476	
1	0	0	0	0	476	
2	0	0	0	0	477	
3	0	0	0	0	478	
4	0	0	0	0	479	
5	0	0	0	0	480	
6	0	0	0	0	480	
7	0	0	0	0	480	
8	0	0	0	0	480	
9	0	0	0	0	481	
10	0	0	0	0	481	
11	0	0	0	0	480	
12	0	0	0	0	480	
13	0	0	0	0	481	
14	0	0	0	0	482	
15	0	0	0	0	484	
0	0	0	0	0	484	
1	0	0	0	0	484	
2	0	0	0	0	484	
3	0	0	0	0	485	
4	0	0	0	0	487	
5	0	0	0	0	488	
6	0	0	0	0	489	
7	0	0	0	0	489	
8	0	0	0	0	491	
9	0	0	0	0	492	
10	0	0	0	0	492	
11	0	0	0	0	494	
12	0	0	0	0	496	
13	0	0	0	0	497	
14	0	0	0	0	499	
15	0	0	0	0	500	
0	0	0	0	0	501	
1	0	0	0	0	503	
2	0	0	0	0	504	
3	0	0	0	0	504	
4	0	0	0	0	504	
5	0	0	0	0	505	
6	0	0	0	0	505	
7	0	0	0	0	505	
8	0	0	0	0	505	
9	0	0	0	0	507	
10	0	0	0	0	509	
11	0	0	0	0	510	
12	0	0	0	0	511	
13	0	0	0	0	512	
14	0	0	0	0	514	
15	0	0	0	0	515	
0	0	0	0	0	515	
1	0	0	0	0	515	
2	0	0	0	0	514	
3	0	0	0	0	511	
4	0	0	0	0	511	
5	0	0	0	0	512	
6	0	0	0	0	512	
7	0	0	0	0	512	
8	0	0	0	0	511	
9	0	0	0	0	512	
10	0	0	0	0	513	
11	0	0	0	0	515	
12	0	0	0	0	516	
13	0	0	0	0	515	
14	0	0	0	0	516	
15	0	0	0	0	516	
0	0	0	0	0	515	
1	0	0	0	0	516	
2	0	0	0	0	515	
3	0	0	0	0	515	
4	0	0	0	0	515	
5	0	0	0	0	514	
6	0	0	0	0	514	
7	0	0	0	0	513	
8	0	0	0	0	514	
9	0	0	0	0	514	
10	0	0	0	0	514	
11	0	0	0	0	515	
12	0	0	0	0	515	
13	0	0	0	0	516	
14	0	0	0	0	516	
15	0	0	0	0	517	
0	0	0	0	0	519	
1	0	0	0	0	519	
2	0	0	0	0	519	
3	0	0	0	0	520	
4	0	0	0	0	521	
5	0	0	0	0	522	
6	0	0	0	0	523	
7	0	0	0	0	523	
8	0	0	0	0	522	
9	0	0	0	0	521	
10	0	0	0	0	523	
11	0	0	0	0	522	
12	0	0	0	0	523	
13	0	0	0	0	521	
14	0	0	0	0	520	
15	0	0	0	0	522	
0	0	0	0	0	521	
1	0	0	0	0	521	
2	0	0	0	0	522	
3	0	0	0	0	521	
4	0	0	0	0	522	
5	0	0	0	0	522	
6	0	0	0	0	520	
7	0	0	0	0	519	
8	0	0	0	0	519	
9	0	0	0	0	519	
10	0	0	0	0	519	
11	0	0	0	0	519	
12	0	0	0	0	519	
13	0	0	0	0	519	
14	0	0	0	0	519	
15	0	0	0	0	519	
0	0	0	0	0	519	
1	0	0	0	0	518	
2	0	0	0	0	517	
3	0	0	0	0	517	
4	0	0	0	0	518	
5	0	0	0	0	519	
6	0	0	0	0	518	
7	0	0	0	0	517	
8	0	0	0	0	518	
9	0	0	0	0	516	
10	0	0	0	0	516	
11	0	0	0	0	515	
12	0	0	0	0	514	
13	0	0	0	0	514	
14	0	0	0	0	513	
15	0	0	0	0	513	
0	0	0	0	0	514	
1	0	0	0	0	514	
2	0	0	0	0	515	
3	0	0	0	0	515	
4	0	0	0	0	516	
5	0	0	0	0	514	
6	0	0	0	0	513	
7	0	0	0	0	511	
8	0	0	0	0	511	
9	0	0	0	0	510	
10	0	0	0	0	510	
11	0	0	0	0	510	
12	0	0	0	0	512	
13	0	0	0	0	512	
14	0	0	0	0	510	
15	0	0	0	0	508	
0	0	0	0	0	507	
1	0	0	0	0	507	
2	0	0	0	0	508	
3	0	0	0	0	508	
4	0	0	0	0	508	
5	0	0	0	0	508	
6	0	0	0	0	508	
7	0	0	0	0	508	
8	0	0	0	0	508	
9	0	0	0	0	508	
10	0	0	0	0	506	
11	0	0	0	0	506	
12	0	0	0	0	504	
13	0	0	0	0	505	
14	0	0	0	0	506	
15	0	0	0	0	505	
0	0	0	0	0	505	
1	0	0	0	0	504	
2	0	0	0	0	503	
3	0	0	0	0	503	
4	0	0	0	0	503	
5	0	0	0	0	503	
6	0	0	0	0	502	
7	0	0	0	0	502	
8	0	0	0	0	500	
9	0	0	0	0	499	
10	0	0	0	0	498	
11	0	0	0	0	498	
12	0	0	0	0	498	
13	0	0	0	0	498	
14	0	0	0	0	499	
15	0	0	0	0	500	
0	0	0	0	0	500	
1	0	0	0	0	499	
2	0	0	0	0	499	
3	0	0	0	0	499	
4	0	0	0	0	498	
5	0	0	0	0	497	
6	0	0	0	0	497	
7	0	0	0	0	497	
8	0	0	0	0	496	
9	0	0	0	0	498	
10	0	0	0	0	498	
11	0	0	0	0	499	
12	0	0	0	0	498	
13	0	0	0	0	497	
14	0	0	0	0	498	
15	0	0	0	0	498	
0	0	0	0	0	498	
1	0	0	0	0	499	
2	0	0	0	0	498	
3	0	0	0	0	499	
4	0	0	0	0	498	
5	0	0	0	0	499	
6	0	0	0	0	500	
7	0	0	0	0	501	
8	0	0	0	0	503	
9	0	0	0	0	503	
10	0	0	0	0	504	
11	0	0	0	0	504	
12	0	0	0	0	505	
13	0	0	0	0	505	
14	0	0	0	0	504	
15	0	0	0	0	503	
0	0	0	0	0	502	
1	0	0	0	0	502	
2	0	0	0	0	502	
3	0	0	0	0	503	
4	0	0	0	0	504	
5	0	0	0	0	505	
6	0	0	0	0	505	
7	0	0	0	0	507	
8	0	0	0	0	507	
9	0	0	0	0	507	
10	0	0	0	0	507	
11	0	0	0	0	507	
12	0	0	0	0	507	
13	0	0	0	0	508	
14	0	0	0	0	508	
15	0	0	0	0	507	
0	0	0	0	0	506	
1	0	0	0	0	506	
2	0	0	0	0	506	
3	0	0	0	0	506	
4	0	0	0	0	507	
5	0	0	0	0	507	
6	0	0	0	0	508	
7	0	0	0	0	508	
8	0	0	0	0	509	
9	0	0	0	0	510	
10	0	0	0	0	509	
11	0	0	0	0	508	
12	0	0	0	0	508	
13	0	0	0	0	508	
14	0	0	0	0	507	
15	0	0	0	0	507	
0	0	0	0	0	508	
1	0	0	0	0	507	
2	0	0	0	0	507	
3	0	0	0	0	507	
4	0	0	0	0	508	
5	0	0	0	0	508	
6	0	0	0	0	508	
7	0	0	0	0	508	
8	0	0	0	0	507	
9	0	0	0	0	506	
10	0	0	0	0	507	
11	0	0	0	0	508	
12	0	0	0	0	508	
13	0	0	0	0	509	
14	0	0	0	0	511	
15	0	0	0	0	511	
0	0	0	0	0	509	
1	0	0	0	0	508	
2	0	0	0	0	509	
3	0	0	0	0	509	
4	0	0	0	0	510	
5	0	0	0	0	509	
6	0	0	0	0	510	
7	0	0	0	0	510	
8	0	0	0	0	509	
9	0	0	0	0	509	
10	0	0	0	0	508	
11	0	0	0	0	508	
12	0	0	0	0	508	
13	0	0	0	0	508	
14	0	0	0	0	508	
15	0	0	0	0	508	
0	0	0	0	0	508	
1	0	0	0	0	508	
2	0	0	0	0	509	
3	0	0	0	0	511	
4	0	0	0	0	511	
5	0	0	0	0	512	
6	0	0	0	0	513	
7	0	0	0	0	514	
8	0	0	0	0	515	
9	0	0	0	0	515	
10	0	0	0	0	516	
11	0	0	0	0	515	
12	0	0	0	0	513	
13	0	0	0	0	513	
14	0	0	0	0	513	
15	0	0	0	0	513	
0	0	0	0	0	513	
1	0	0	0	0	514	
2	0	0	0	0	515	
3	0	0	0	0	515	
4	0	0	0	0	514	
5	0	0	0	0	513	
6	0	0	0	0	511	
7	0	0	0	0	511	
8	0	0	0	0	511	
9	0	0	0	0	511	
10	0	0	0	0	512	
11	0	0	0	0	512	
12	0	0	0	0	514	
13	0	0	0	0	513	
14	0	0	0	0	513	
15	0	0	0	0	512	
0	0	0	0	0	512	
1	0	0	0	0	513	
2	0	0	0	0	511	
3	0	0	0	0	510	
4	0	0	0	0	511	
5	0	0	0	0	511	
6	0	0	0	0	512	
7	0	0	0	0	512	
8	0	0	0	0	512	
9	0	0	0	0	512	
10	0	0	0	0	513	
11	0	0	0	0	515	
12	0	0	0	0	515	
13	0	0	0	0	513	
14	0	0	0	0	512	
15	0	0	0	0	512	
0	0	0	0	0	513	
1	0	0	0	0	512	
2	0	0	0	0	511	
3	0	0	0	0	511	
4	0	0	0	0	511	
5	0	0	0	0	512	
6	0	0	0	0	513	
7	0	0	0	0	512	
8	0	0	0	0	513	
9	0	0	0	0	512	
10	0	0	0	0	513	
11	0	0	0	0	513	
12	0	0	0	0	513	
13	0	0	0	0	512	
14	0	0	0	0	511	
15	0	0	0	0	511	
0	0	0	0	0	511	
1	0	0	0	0	511	
2	0	0	0	0	511	
3	0	0	0	0	510	
4	0	0	0	0	510	
5	0	0	0	0	509	
6	0	0	0	0	509	
7	0	0	0	0	509	
8	0	0	0	0	509	
9	0	0	0	0	509	
10	0	0	0	0	509	
11	0	0	0	0	511	
12	0	0	0	0	511	
13	0	0	0	0	510	
14	0	0	0	0	509	
15	0	0	0	0	508	
0	0	0	0	0	510	
1	0	0	0	0	511	
2	0	0	0	0	511	
3	0	0	0	0	512	
4	0	0	0	0	512	
5	0	0	0	0	511	
6	0	0	0	0	510	
7	0	0	0	0	509	
8	0	0	0	0	510	
9	0	0	0	0	510	
10	0	0	0	0	510	
11	0	0	0	0	510	
12	0	0	0	0	509	
13	0	0	0	0	509	
14	0	0	0	0	509	
15	0	0	0	0	509	
0	0	0	0	0	508	
1	0	0	0	0	508	
2	0	0	0	0	508	
3	0	0	0	0	508	
4	0	0	0	0	508	
5	0	0	0	0	509	
6	0	0	0	0	509	
7	0	0	0	0	509	
8	0	0	0	0	508	
9	0	0	0	0	508	
10	0	0	0	0	509	
11	0	0	0	0	508	
12	0	0	0	0	508	
13	0	0	0	0	507	
14	0	0	0	0	507	
15	0	0	0	0	507	
0	0	0	0	0	506	
1	0	0	0	0	506	
2	0	0	0	0	505	
3	0	0	0	0	505	
4	0	0	0	0	505	
5	0	0	0	0	505	
6	0	0	0	0	506	
7	0	0	0	0	505	
8	0	0	0	0	506	
9	0	0	0	0	505	
10	0	0	0	0	505	
11	0	0	0	0	505	
12	0	0	0	0	504	
13	0	0	0	0	503	
14	0	0	0	0	502	
15	0	0	0	0	501	
0	0	0	0	0	501	
1	0	0	0	0	499	
2	0	0	0	0	497	
3	0	0	0	0	497	
4	0	0	0	0	495	
5	0	0	0	0	492	
6	0	0	0	0	489	
7	0	0	0	0	487	
8	0	0	0	0	486	
9	0	0	0	0	485	
10	0	0	0	0	484	
11	0	0	0	0	483	
12	0	0	0	0	482	
13	0	0	0	0	480	
14	0	0	0	0	478	
15	0	0	0	0	477	
0	0	0	0	0	477	
1	0	0	0	0	478	
2	0	0	0	0	479	
3	0	0	0	0	479	
4	0	0	0	0	481	
5	0	0	0	0	482	
6	0	0	0	0	483	
7	0	0	0	0	483	
8	0	0	0	0	482	
9	0	0	0	0	480	
10	0	0	0	0	479	
11	0	0	0	0	478	
12	0	0	0	0	474	
13	0	0	0	0	470	
14	0	0	0	0	467	
15	0	0	0	0	463	
0	0	0	0	0	461	
1	0	0	0	0	459	
2	0	0	0	0	458	
3	0	0	0	0	459	
4	0	0	0	0	461	
5	0	0	0	0	462	
6	0	0	0	0	465	
7	0	0	0	0	466	
8	0	0	0	0	467	
9	0	0	0	0	467	
10	0	0	0	0	468	
11	0	0	0	0	470	
12	0	0	0	0	470	
13	0	0	0	0	471	
14	0	0	0	0	473	
15	0	0	0	0	475	
0	0	0	0	0	477	
1	0	0	0	0	480	
2	0	0	0	0	484	
3	0	0	0	0	487	
4	0	0	0	0	490	
5	0	0	0	0	492	
6	0	0	0	0	495	
7	0	0	0	0	497	
8	0	0	0	0	497	
9	0	0	0	0	498	
10	0	0	0	0	499	
11	0	0	0	0	499	
12	0	0	0	0	501	
13	0	0	0	0	503	
14	0	0	0	0	504	
15	0	0	0	0	504	
0	0	0	0	0	505	
1	0	0	0	0	508	
2	0	0	0	0	508	
3	0	0	0	0	508	
4	0	0	0	0	510	
5	0	0	0	0	511	
6	0	0	0	0	512	
7	0	0	0	0	514	
8	0	0	0	0	515	
9	0	0	0	0	515	
10	0	0	0	0	518	
11	0	0	0	0	521	
12	0	0	0	0	523	
13	0	0	0	0	524	
14	0	0	0	0	526	
15	0	0	0	0	527	
0	0	0	0	0	529	
1	0	0	0	0	529	
2	0	0	0	0	529	
3	0	0	0	0	530	
4	0	0	0	0	529	
5	0	0	0	0	530	
6	0	0	0	0	528	
7	0	0	0	0	528	
8	0	0	0	0	528	
9	0	0	0	0	529	
10	0	0	0	0	531	
11	0	0	0	0	534	
12	0	0	0	0	535	
13	0	0	0	0	536	
14	0	0	0	0	537	
15	0	0	0	0	539	
0	0	0	0	0	537	
1	0	0	0	0	536	
2	0	0	0	0	537	
3	0	0	0	0	537	
4	0	0	0	0	537	
5	0	0	0	0	536	
6	0	0	0	0	536	
7	0	0	0	0	536	
8	0	0	0	0	533	
9	0	0	0	0	532	
10	0	0	0	0	531	
11	0	0	0	0	529	
12	0	0	0	0	528	
13	0	0	0	0	530	
14	0	0	0	0	530	
15	0	0	0	0	528	
0	0	0	0	0	528	
1	0	0	0	0	527	
2	0	0	0	0	526	
3	0	0	0	0	525	
4	0	0	0	0	526	
5	0	0	0	0	525	
6	0	0	0	0	524	
7	0	0	0	0	522	
8	0	0	0	0	524	
9	0	0	0	0	524	
10	0	0	0	0	527	
11	0	0	0	0	528	
12	0	0	0	0	531	
13	0	0	0	0	537	
14	0	0	0	0	542	
15	0	0	0	0	547	
0	0	0	0	0	552	
1	0	0	0	0	556	
2	0	0	0	0	559	
3	0	0	0	0	561	
4	0	0	0	0	566	
5	0	0	0	0	572	
6	0	0	0	0	576	
7	0	0	0	0	580	
8	0	0	0	0	583	
9	0	0	0	0	584	
10	0	0	0	0	583	
11	0	0	0	0	579	
12	0	0	0	0	571	
13	0	0	0	0	559	
14	0	0	0	0	544	
15	0	0	0	0	526	
0	0	0	0	0	505	
1	0	0	0	0	481	
2	0	0	0	0	458	
3	0	0	0	0	435	
4	0	0	0	0	412	
5	0	0	0	0	385	
6	0	0	0	0	354	
7	0	0	0	0	321	
8	0	0	0	0	282	
9	0	0	0	0	238	
10	0	0	0	0	193	
11	0	0	0	0	154	
12	0	0	0	0	127	
13	0	0	0	0	110	
14	0	0	0	0	106	
15	0	0	0	0	112	
0	0	0	0	0	125	
1	0	0	0	0	142	
2	0	0	0	0	166	
3	0	0	0	0	196	
4	0	0	0	0	231	
5	0	0	0	0	272	
6	0	0	0	0	313	
7	0	0	0	0	352	
8	0	0	0	0	388	
9	0	0	0	0	420	
10	0	0	0	0	449	
11	0	0	0	0	472	
12	0	0	0	0	491	
13	0	0	0	0	507	
14	0	0	0	0	520	
15	0	0	0	0	536	
0	0	0	0	0	553	
1	0	0	0	0	569	
2	0	0	0	0	584	
3	0	0	0	0	601	
4	0	0	0	0	617	
5	0	0	0	0	633	
6	0	0	0	0	649	
7	0	0	0	0	664	
8	0	0	0	0	676	
9	0	0	0	0	685	
10	0	0	0	0	688	
11	0	0	0	0	690	
12	0	0	0	0	688	
13	0	0	0	0	686	
14	0	0	0	0	684	
15	0	0	0	0	676	
0	0	0	0	0	670	
1	0	0	0	0	663	
2	0	0	0	0	657	
3	0	0	0	0	652	
4	0	0	0	0	646	
5	0	0	0	0	638	
6	0	0	0	0	632	
7	0	0	0	0	625	
8	0	0	0	0	619	
9	0	0	0	0	611	
10	0	0	0	0	604	
11	0	0	0	0	598	
12	0	0	0	0	590	
13	0	0	0	0	583	
14	0	0	0	0	575	
15	0	0	0	0	568	
0	0	0	0	0	562	
1	0	0	0	0	557	
2	0	0	0	0	554	
3	0	0	0	0	550	
4	0	0	0	0	545	
5	0	0	0	0	543	
6	0	0	0	0	543	
7	0	0	0	0	544	
8	0	0	0	0	543	
9	0	0	0	0	543	
10	0	0	0	0	542	
11	0	0	0	0	541	
12	0	0	0	0	540	
13	0	0	0	0	539	
14	0	0	0	0	536	
15	0	0	0	0	534	
0	0	0	0	0	533	
1	0	0	0	0	535	
2	0	0	0	0	534	
3	0	0	0	0	531	
4	0	0	0	0	528	
5	0	0	0	0	527	
6	0	0	0	0	527	
7	0	0	0	0	527	
8	0	0	0	0	526	
9	0	0	0	0	526	
10	0	0	0	0	525	
11	0	0	0	0	525	
12	0	0	0	0	524	
13	0	0	0	0	521	
14	0	0	0	0	518	
15	0	0	0	0	516	
0	0	0	0	0	516	
1	0	0	0	0	518	
2	0	0	0	0	518	
3	0	0	0	0	518	
4	0	0	0	0	519	
5	0	0	0	0	517	
6	0	0	0	0	515	
7	0	0	0	0	514	
8	0	0	0	0	514	
9	0	0	0	0	515	
10	0	0	0	0	516	
11	0	0	0	0	516	
12	0	0	0	0	517	
13	0	0	0	0	515	
14	0	0	0	0	513	
15	0	0	0	0	513	
0	0	0	0	0	511	
1	0	0	0	0	510	
2	0	0	0	0	511	
3	0	0	0	0	510	
4	0	0	0	0	510	
5	0	0	0	0	511	
6	0	0	0	0	512	
7	0	0	0	0	510	
8	0	0	0	0	510	
9	0	0	0	0	511	
10	0	0	0	0	511	
11	0	0	0	0	512	
12	0	0	0	0	512	
13	0	0	0	0	511	
14	0	0	0	0	511	
15	0	0	0	0	510	
0	0	0	0	0	507	
1	0	0	0	0	505	
2	0	0	0	0	505	
3	0	0	0	0	505	
4	0	0	0	0	504	
5	0	0	0	0	505	
6	0	0	0	0	507	
7	0	0	0	0	509	
8	0	0	0	0	510	
9	0	0	0	0	509	
10	0	0	0	0	507	
11	0	0	0	0	504	
12	0	0	0	0	503	
13	0	0	0	0	503	
14	0	0	0	0	502	
15	0	0	0	0	500	
0	0	0	0	0	499	
1	0	0	0	0	498	
2	0	0	0	0	497	
3	0	0	0	0	496	
4	0	0	0	0	495	
5	0	0	0	0	494	
6	0	0	0	0	494	
7	0	0	0	0	495	
8	0	0	0	0	493	
9	0	0	0	0	492	
10	0	0	0	0	491	
11	0	0	0	0	491	
12	0	0	0	0	493	
13	0	0	0	0	494	
14	0	0	0	0	494	
15	0	0	0	0	494	
0	0	0	0	0	493	
1	0	0	0	0	493	
2	0	0	0	0	493	
3	0	0	0	0	494	
4	0	0	0	0	495	
5	0	0	0	0	497	
6	0	0	0	0	499	
7	0	0	0	0	502	
8	0	0	0	0	502	
9	0	0	0	0	501	
10	0	0	0	0	500	
11	0	0	0	0	500	
12	0	0	0	0	499	
13	0	0	0	0	499	
14	0	0	0	0	497	
15	0	0	0	0	493	
0	0	0	0	0	492	
1	0	0	0	0	489	
2	0	0	0	0	487	
3	0	0	0	0	487	
4	0	0	0	0	486	
5	0	0	0	0	486	
6	0	0	0	0	485	
7	0	0	0	0	483	
8	0	0	0	0	483	
9	0	0	0	0	484	
10	0	0	0	0	483	
11	0	0	0	0	482	
12	0	0	0	0	480	
13	0	0	0	0	479	
14	0	0	0	0	478	
15	0	0	0	0	479	
0	0	0	0	0	479	
1	0	0	0	0	480	
2	0	0	0	0	480	
3	0	0	0	0	478	
4	0	0	0	0	476	
5	0	0	0	0	474	
6	0	0	0	0	474	
7	0	0	0	0	475	
8	0	0	0	0	473	
9	0	0	0	0	473	
10	0	0	0	0	471	
11	0	0	0	0	472	
12	0	0	0	0	470	
13	0	0	0	0	468	
14	0	0	0	0	470	
15	0	0	0	0	468	
0	0	0	0	0	467	
1	0	0	0	0	467	
2	0	0	0	0	466	
3	0	0	0	0	467	
4	0	0	0	0	467	
5	0	0	0	0	467	
6	0	0	0	0	468	
7	0	0	0	0	468	
8	0	0	0	0	467	
9	0	0	0	0	466	
10	0	0	0	0	467	
11	0	0	0	0	468	
12	0	0	0	0	470	
13	0	0	0	0	471	
14	0	0	0	0	471	
15	0	0	0	0	470	
0	0	0	0	0	468	
1	0	0	0	0	467	
2	0	0	0	0	467	
3	0	0	0	0	466	
4	0	0	0	0	467	
5	0	0	0	0	467	
6	0	0	0	0	467	
7	0	0	0	0	468	
8	0	0	0	0	469	
9	0	0	0	0	472	
10	0	0	0	0	473	
11	0	0	0	0	472	
12	0	0	0	0	473	
13	0	0	0	0	473	
14	0	0	0	0	473	
15	0	0	0	0	473	
0	0	0	0	0	473	
1	0	0	0	0	475	
2	0	0	0	0	475	
3	0	0	0	0	475	
4	0	0	0	0	476	
5	0	0	0	0	476	
6	0	0	0	0	478	
7	0	0	0	0	480	
8	0	0	0	0	482	
9	0	0	0	0	483	
10	0	0	0	0	485	
11	0	0	0	0	485	
12	0	0	0	0	485	
13	0	0	0	0	486	
14	0	0	0	0	487	
15	0	0	0	0	485	
0	0	0	0	0	484	
1	0	0	0	0	484	
2	0	0	0	0	485	
3	0	0	0	0	486	
4	0	0	0	0	486	
5	0	0	0	0	487	
6	0	0	0	0	487	
7	0	0	0	0	489	
8	0	0	0	0	490	
9	0	0	0	0	492	
10	0	0	0	0	496	
11	0	0	0	0	498	
12	0	0	0	0	500	
13	0	0	0	0	502	
14	0	0	0	0	504	
15	0	0	0	0	507	
0	0	0	0	0	508	
1	0	0	0	0	509	
2	0	0	0	0	508	
3	0	0	0	0	509	
4	0	0	0	0	510	
5	0	0	0	0	508	
6	0	0	0	0	507	
7	0	0	0	0	506	
8	0	0	0	0	506	
9	0	0	0	0	507	
10	0	0	0	0	505	
11	0	0	0	0	504	
12	0	0	0	0	505	
13	0	0	0	0	506	
14	0	0	0	0	508	
15	0	0	0	0	509	
0	0	0	0	0	511	
1	0	0	0	0	512	
2	0	0	0	0	512	
3	0	0	0	0	511	
4	0	0	0	0	511	
5	0	0	0	0	509	
6	0	0	0	0	510	
7	0	0	0	0	512	
8	0	0	0	0	515	
9	0	0	0	0	515	
10	0	0	0	0	517	
11	0	0	0	0	519	
12	0	0	0	0	521	
13	0	0	0	0	523	
14	0	0	0	0	524	
15	0	0	0	0	525	
0	0	0	0	0	527	
1	0	0	0	0	528	
2	0	0	0	0	529	
3	0	0	0	0	527	
4	0	0	0	0	524	
5	0	0	0	0	523	
6	0	0	0	0	522	
7	0	0	0	0	521	
8	0	0	0	0	520	
9	0	0	0	0	521	
10	0	0	0	0	521	
11	0	0	0	0	519	
12	0	0	0	0	520	
13	0	0	0	0	519	
14	0	0	0	0	520	
15	0	0	0	0	521	
0	0	0	0	0	520	
1	0	0	0	0	519	
2	0	0	0	0	515	
3	0	0	0	0	513	
4	0	0	0	0	514	
5	0	0	0	0	515	
6	0	0	0	0	517	
7	0	0	0	0	517	
8	0	0	0	0	519	
9	0	0	0	0	520	
10	0	0	0	0	523	
11	0	0	0	0	525	
12	0	0	0	0	525	
13	0	0	0	0	526	
14	0	0	0	0	527	
15	0	0	0	0	526	
0	0	0	0	0	526	
1	0	0	0	0	524	
2	0	0	0	0	519	
3	0	0	0	0	517	
4	0	0	0	0	518	
5	0	0	0	0	520	
6	0	0	0	0	524	
7	0	0	0	0	525	
8	0	0	0	0	525	
9	0	0	0	0	524	
10	0	0	0	0	524	
11	0	0	0	0	523	
12	0	0	0	0	522	
13	0	0	0	0	522	
14	0	0	0	0	521	
15	0	0	0	0	521	
0	0	0	0	0	520	
1	0	0	0	0	522	
2	0	0	0	0	522	
3	0	0	0	0	521	
4	0	0	0	0	521	
5	0	0	0	0	519	
6	0	0	0	0	518	
7	0	0	0	0	517	
8	0	0	0	0	518	
9	0	0	0	0	520	
10	0	0	0	0	520	
11	0	0	0	0	519	
12	0	0	0	0	518	
13	0	0	0	0	518	
14	0	0	0	0	518	
15	0	0	0	0	517	
0	0	0	0	0	516	
1	0	0	0	0	514	
2	0	0	0	0	515	
3	0	0	0	0	517	
4	0	0	0	0	516	
5	0	0	0	0	515	
6	0	0	0	0	515	
7	0	0	0	0	512	
8	0	0	0	0	511	
9	0	0	0	0	511	
10	0	0	0	0	511	
11	0	0	0	0	510	
12	0	0	0	0	509	
13	0	0	0	0	509	
14	0	0	0	0	510	
15	0	0	0	0	512	
0	0	0	0	0	514	
1	0	0	0	0	515	
2	0	0	0	0	516	
3	0	0	0	0	516	
4	0	0	0	0	515	
5	0	0	0	0	515	
6	0	0	0	0	513	
7	0	0	0	0	513	
8	0	0	0	0	509	
9	0	0	0	0	508	
10	0	0	0	0	507	
11	0	0	0	0	506	
12	0	0	0	0	507	
13	0	0	0	0	509	
14	0	0	0	0	512	
15	0	0	0	0	515	
0	0	0	0	0	517	
1	0	0	0	0	518	
2	0	0	0	0	518	
3	0	0	0	0	518	
4	0	0	0	0	519	
5	0	0	0	0	518	
6	0	0	0	0	516	
7	0	0	0	0	513	
8	0	0	0	0	512	
9	0	0	0	0	510	
10	0	0	0	0	508	
11	0	0	0	0	506	
12	0	0	0	0	507	
13	0	0	0	0	506	
14	0	0	0	0	504	
15	0	0	0	0	503	
0	0	0	0	0	503	
1	0	0	0	0	503	
2	0	0	0	0	504	
3	0	0	0	0	505	
4	0	0	0	0	508	
5	0	0	0	0	512	
6	0	0	0	0	513	
7	0	0	0	0	512	
8	0	0	0	0	513	
9	0	0	0	0	512	
10	0	0	0	0	508	
11	0	0	0	0	506	
12	0	0	0	0	505	
13	0	0	0	0	507	
14	0	0	0	0	509	
15	0	0	0	0	513	
0	0	0	0	0	514	
1	0	0	0	0	515	
2	0	0	0	0	515	
3	0	0	0	0	514	
4	0	0	0	0	515	
5	0	0	0	0	517	
6	0	0	0	0	518	
7	0	0	0	0	516	
8	0	0	0	0	515	
9	0	0	0	0	515	
10	0	0	0	0	516	
11	0	0	0	0	516	
12	0	0	0	0	514	
13	0	0	0	0	511	
14	0	0	0	0	506	
15	0	0	0	0	499	
0	0	0	0	0	496	
1	0	0	0	0	493	
2	0	0	0	0	491	
3	0	0	0	0	494	
4	0	0	0	0	496	
5	0	0	0	0	499	
6	0	0	0	0	503	
7	0	0	0	0	505	
8	0	0	0	0	510	
9	0	0	0	0	511	
10	0	0	0	0	513	
11	0	0	0	0	514	
12	0	0	0	0	515	
13	0	0	0	0	516	
14	0	0	0	0	517	
15	0	0	0	0	515	
0	0	0	0	0	515	
1	0	0	0	0	515	
2	0	0	0	0	515	
3	0	0	0	0	511	
4	0	0	0	0	510	
5	0	0	0	0	511	
6	0	0	0	0	513	
7	0	0	0	0	518	
8	0	0	0	0	522	
9	0	0	0	0	521	
10	0	0	0	0	519	
11	0	0	0	0	515	
12	0	0	0	0	515	
13	0	0	0	0	514	
14	0	0	0	0	515	
15	0	0	0	0	514	
0	0	0	0	0	514	
1	0	0	0	0	515	
2	0	0	0	0	515	
3	0	0	0	0	516	
4	0	0	0	0	518	
5	0	0	0	0	519	
6	0	0	0	0	520	
7	0	0	0	0	520	
8	0	0	0	0	518	
9	0	0	0	0	516	
10	0	0	0	0	516	
11	0	0	0	0	517	
12	0	0	0	0	517	
13	0	0	0	0	514	
14	0	0	0	0	515	
15	0	0	0	0	518	
0	0	0	0	0	517	
1	0	0	0	0	515	
2	0	0	0	0	516	
3	0	0	0	0	514	
4	0	0	0	0	512	
5	0	0	0	0	513	
6	0	0	0	0	513	
7	0	0	0	0	514	
8	0	0	0	0	513	
9	0	0	0	0	513	
10	0	0	0	0	511	
11	0	0	0	0	511	
12	0	0	0	0	511	
13	0	0	0	0	511	
14	0	0	0	0	510	
15	0	0	0	0	511	
0	0	0	0	0	511	
1	0	0	0	0	512	
2	0	0	0	0	513	
3	0	0	0	0	515	
4	0	0	0	0	517	
5	0	0	0	0	517	
6	0	0	0	0	518	
7	0	0	0	0	517	
8	0	0	0	0	518	
9	0	0	0	0	520	
10	0	0	0	0	519	
11	0	0	0	0	520	
12	0	0	0	0	522	
13	0	0	0	0	519	
14	0	0	0	0	518	
15	0	0	0	0	517	
0	0	0	0	0	518	
1	0	0	0	0	518	
2	0	0	0	0	516	
3	0	0	0	0	517	
4	0	0	0	0	518	
5	0	0	0	0	519	
6	0	0	0	0	518	
7	0	0	0	0	519	
8	0	0	0	0	516	
9	0	0	0	0	515	
10	0	0	0	0	515	
11	0	0	0	0	516	
12	0	0	0	0	515	
13	0	0	0	0	515	
14	0	0	0	0	517	
15	0	0	0	0	518	
0	0	0	0	0	518	
1	0	0	0	0	521	
2	0	0	0	0	525	
3	0	0	0	0	524	
4	0	0	0	0	522	
5	0	0	0	0	521	
6	0	0	0	0	525	
7	0	0	0	0	527	
8	0	0	0	0	524	
9	0	0	0	0	523	
10	0	0	0	0	516	
11	0	0	0	0	513	
12	0	0	0	0	511	
13	0	0	0	0	509	
14	0	0	0	0	510	
15	0	0	0	0	510	
0	0	0	0	0	510	
1	0	0	0	0	508	
2	0	0	0	0	504	
3	0	0	0	0	505	
4	0	0	0	0	504	
5	0	0	0	0	500	
6	0	0	0	0	499	
7	0	0	0	0	501	
8	0	0	0	0	502	
9	0	0	0	0	503	
10	0	0	0	0	503	
11	0	0	0	0	504	
12	0	0	0	0	503	
13	0	0	0	0	506	
14	0	0	0	0	507	
15	0	0	0	0	506	
0	0	0	0	0	502	
1	0	0	0	0	500	
2	0	0	0	0	500	
3	0	0	0	0	496	
4	0	0	0	0	496	
5	0	0	0	0	497	
6	0	0	0	0	497	
7	0	0	0	0	492	
8	0	0	0	0	490	
9	0	0	0	0	491	
10	0	0	0	0	489	
11	0	0	0	0	491	
12	0	0	0	0	492	
13	0	0	0	0	492	
14	0	0	0	0	489	
15	0	0	0	0	489	
0	0	0	0	0	490	
1	0	0	0	0	489	
2	0	0	0	0	487	
3	0	0	0	0	486	
4	0	0	0	0	484	
5	0	0	0	0	484	
6	0	0	0	0	487	
7	0	0	0	0	488	
8	0	0	0	0	489	
9	0	0	0	0	491	
10	0	0	0	0	489	
11	0	0	0	0	488	
12	0	0	0	0	487	
13	0	0	0	0	488	
14	0	0	0	0	491	
15	0	0	0	0	491	
0	0	0	0	0	493	
1	0	0	0	0	496	
2	0	0	0	0	500	
3	0	0	0	0	502	
4	0	0	0	0	503	
5	0	0	0	0	502	
6	0	0	0	0	504	
7	0	0	0	0	506	
8	0	0	0	0	509	
9	0	0	0	0	510	
10	0	0	0	0	505	
11	0	0	0	0	504	
12	0	0	0	0	509	
13	0	0	0	0	513	
14	0	0	0	0	518	
15	0	0	0	0	522	
0	0	0	0	0	525	
1	0	0	0	0	523	
2	0	0	0	0	523	
3	0	0	0	0	522	
4	0	0	0	0	522	
5	0	0	0	0	521	
6	0	0	0	0	520	
7	0	0	0	0	519	
8	0	0	0	0	519	
9	0	0	0	0	521	
10	0	0	0	0	521	
11	0	0	0	0	521	
12	0	0	0	0	522	
13	0	0	0	0	529	
14	0	0	0	0	533	
15	0	0	0	0	534	
0	0	0	0	0	537	
1	0	0	0	0	539	
2	0	0	0	0	539	
3	0	0	0	0	541	
4	0	0	0	0	541	
5	0	0	0	0	538	
6	0	0	0	0	538	
7	0	0	0	0	537	
8	0	0	0	0	538	
9	0	0	0	0	537	
10	0	0	0	0	538	
11	0	0	0	0	541	
12	0	0	0	0	541	
13	0	0	0	0	543	
14	0	0	0	0	545	
15	0	0	0	0	547	
0	0	0	0	0	550	
1	0	0	0	0	549	
2	0	0	0	0	551	
3	0	0	0	0	552	
4	0	0	0	0	552	
5	0	0	0	0	552	
6	0	0	0	0	551	
7	0	0	0	0	547	
8	0	0	0	0	547	
9	0	0	0	0	546	
10	0	0	0	0	545	
11	0	0	0	0	542	
12	0	0	0	0	539	
13	0	0	0	0	537	
14	0	0	0	0	536	
15	0	0	0	0	536	
0	0	0	0	0	536	
1	0	0	0	0	539	
2	0	0	0	0	544	
3	0	0	0	0	545	
4	0	0	0	0	545	
5	0	0	0	0	543	
6	0	0	0	0	541	
7	0	0	0	0	538	
8	0	0	0	0	536	
9	0	0	0	0	536	
10	0	0	0	0	539	
11	0	0	0	0	541	
12	0	0	0	0	544	
13	0	0	0	0	547	
14	0	0	0	0	552	
15	0	0	0	0	559	
0	0	0	0	0	566	
1	0	0	0	0	568	
2	0	0	0	0	569	
3	0	0	0	0	574	
4	0	0	0	0	576	
5	0	0	0	0	579	
6	0	0	0	0	582	
7	0	0	0	0	579	
8	0	0	0	0	579	
9	0	0	0	0	575	
10	0	0	0	0	568	
11	0	0	0	0	564	
12	0	0	0	0	555	
13	0	0	0	0	544	
14	0	0	0	0	535	
15	0	0	0	0	524	
0	0	0	0	0	508	
1	0	0	0	0	488	
2	0	0	0	0	469	
3	0	0	0	0	452	
4	0	0	0	0	434	
5	0	0	0	0	414	
6	0	0	0	0	396	
7	0	0	0	0	380	
8	0	0	0	0	359	
9	0	0	0	0	335	
10	0	0	0	0	305	
11	0	0	0	0	276	
12	0	0	0	0	247	
13	0	0	0	0	221	
14	0	0	0	0	209	
15	0	0	0	0	206	
0	0	0	0	0	214	
1	0	0	0	0	229	
2	0	0	0	0	250	
3	0	0	0	0	278	
4	0	0	0	0	305	
5	0	0	0	0	332	
6	0	0	0	0	360	
7	0	0	0	0	391	
8	0	0	0	0	420	
9	0	0	0	0	447	
10	0	0	0	0	472	
11	0	0	0	0	497	
12	0	0	0	0	511	
13	0	0	0	0	516	
14	0	0	0	0	518	
15	0	0	0	0	514	
0	0	0	0	0	515	
1	0	0	0	0	519	
2	0	0	0	0	526	
3	0	0	0	0	534	
4	0	0	0	0	544	
5	0	0	0	0	551	
6	0	0	0	0	561	
7	0	0	0	0	578	
8	0	0	0	0	596	
9	0	0	0	0	614	
10	0	0	0	0	635	
11	0	0	0	0	646	
12	0	0	0	0	656	
13	0	0	0	0	662	
14	0	0	0	0	663	
15	0	0	0	0	663	
0	0	0	0	0	658	
1	0	0	0	0	656	
2	0	0	0	0	652	
3	0	0	0	0	647	
4	0	0	0	0	646	
5	0	0	0	0	645	
6	0	0	0	0	642	
7	0	0	0	0	640	
8	0	0	0	0	639	
9	0	0	0	0	640	
10	0	0	0	0	640	
11	0	0	0	0	635	
12	0	0	0	0	633	
13	0	0	0	0	633	
14	0	0	0	0	630	
15	0	0	0	0	621	
0	0	0	0	0	615	
1	0	0	0	0	615	
2	0	0	0	0	610	
3	0	0	0	0	601	
4	0	0	0	0	591	
5	0	0	0	0	583	
6	0	0	0	0	573	
7	0	0	0	0	559	
8	0	0	0	0	550	
9	0	0	0	0	545	
10	0	0	0	0	543	
11	0	0	0	0	541	
12	0	0	0	0	542	
13	0	0	0	0	540	
14	0	0	0	0	543	
15	0	0	0	0	544	
0	0	0	0	0	546	
1	0	0	0	0	545	
2	0	0	0	0	544	
3	0	0	0	0	541	
4	0	0	0	0	543	
5	0	0	0	0	545	
6	0	0	0	0	550	
7	0	0	0	0	553	
8	0	0	0	0	558	
9	0	0	0	0	554	
10	0	0	0	0	550	
11	0	0	0	0	551	
12	0	0	0	0	553	
13	0	0	0	0	552	
14	0	0	0	0	550	
15	0	0	0	0	547	
0	0	0	0	0	548	
1	0	0	0	0	549	
2	0	0	0	0	547	
3	0	0	0	0	543	
4	0	0	0	0	538	
5	0	0	0	0	535	
6	0	0	0	0	534	
7	0	0	0	0	527	
8	0	0	0	0	521	
9	0	0	0	0	519	
10	0	0	0	0	516	
11	0	0	0	0	517	
12	0	0	0	0	517	
13	0	0	0	0	520	
14	0	0	0	0	523	
15	0	0	0	0	526	
0	0	0	0	0	529	
1	0	0	0	0	531	
2	0	0	0	0	532	
3	0	0	0	0	534	
4	0	0	0	0	536	
5	0	0	0	0	537	
6	0	0	0	0	538	
7	0	0	0	0	537	
8	0	0	0	0	536	
9	0	0	0	0	529	
10	0	0	0	0	523	
11	0	0	0	0	519	
12	0	0	0	0	514	
13	0	0	0	0	512	
14	0	0	0	0	513	
15	0	0	0	0	515	
0	0	0	0	0	519	
1	0	0	0	0	519	
2	0	0	0	0	521	
3	0	0	0	0	524	
4	0	0	0	0	522	
5	0	0	0	0	523	
6	0	0	0	0	530	
7	0	0	0	0	535	
8	0	0	0	0	529	
9	0	0	0	0	519	
10	0	0	0	0	512	
11	0	0	0	0	509	
12	0	0	0	0	507	
13	0	0	0	0	506	
14	0	0	0	0	507	
15	0	0	0	0	508	
0	0	0	0	0	512	
1	0	0	0	0	515	
2	0	0	0	0	518	
3	0	0	0	0	519	
4	0	0	0	0	518	
5	0	0	0	0	517	
6	0	0	0	0	515	
7	0	0	0	0	513	
8	0	0	0	0	510	
9	0	0	0	0	507	
10	0	0	0	0	505	
11	0	0	0	0	504	
12	0	0	0	0	504	
13	0	0	0	0	504	
14	0	0	0	0	503	
15	0	0	0	0	500	
0	0	0	0	0	498	
1	0	0	0	0	493	
2	0	0	0	0	492	
3	0	0	0	0	494	
4	0	0	0	0	497	
5	0	0	0	0	499	
6	0	0	0	0	503	
7	0	0	0	0	507	
8	0	0	0	0	506	
9	0	0	0	0	504	
10	0	0	0	0	498	
11	0	0	0	0	494	
12	0	0	0	0	494	
13	0	0	0	0	492	
14	0	0	0	0	491	
15	0	0	0	0	492	
0	0	0	0	0	494	
1	0	0	0	0	495	
2	0	0	0	0	492	
3	0	0	0	0	491	
4	0	0	0	0	492	
5	0	0	0	0	488	
6	0	0	0	0	484	
7	0	0	0	0	486	
8	0	0	0	0	491	
9	0	0	0	0	492	
10	0	0	0	0	494	
11	0	0	0	0	498	
12	0	0	0	0	499	
13	0	0	0	0	500	
14	0	0	0	0	505	
15	0	0	0	0	508	
0	0	0	0	0	504	
1	0	0	0	0	497	
2	0	0	0	0	494	
3	0	0	0	0	493	
4	0	0	0	0	491	
5	0	0	0	0	491	
6	0	0	0	0	489	
7	0	0	0	0	484	
8	0	0	0	0	475	
9	0	0	0	0	470	
10	0	0	0	0	471	
11	0	0	0	0	472	
12	0	0	0	0	478	
13	0	0	0	0	480	
14	0	0	0	0	487	
15	0	0	0	0	494	
0	0	0	0	0	499	
1	0	0	0	0	503	
2	0	0	0	0	504	
3	0	0	0	0	505	
4	0	0	0	0	502	
5	0	0	0	0	488	
6	0	0	0	0	480	
7	0	0	0	0	478	
8	0	0	0	0	476	
9	0	0	0	0	475	
10	0	0	0	0	478	
11	0	0	0	0	476	
12	0	0	0	0	478	
13	0	0	0	0	476	
14	0	0	0	0	475	
15	0	0	0	0	475	
0	0	0	0	0	478	
1	0	0	0	0	482	
2	0	0	0	0	482	
3	0	0	0	0	482	
4	0	0	0	0	481	
5	0	0	0	0	479	
6	0	0	0	0	474	
7	0	0	0	0	468	
8	0	0	0	0	464	
9	0	0	0	0	463	
10	0	0	0	0	465	
11	0	0	0	0	471	
12	0	0	0	0	471	
13	0	0	0	0	470	
14	0	0	0	0	466	
15	0	0	0	0	465	
0	0	0	0	0	464	
1	0	0	0	0	463	
2	0	0	0	0	465	
3	0	0	0	0	470	
4	0	0	0	0	479	
5	0	0	0	0	491	
6	0	0	0	0	500	
7	0	0	0	0	511	
8	0	0	0	0	520	
9	0	0	0	0	521	
10	0	0	0	0	523	
11	0	0	0	0	521	
12	0	0	0	0	511	
13	0	0	0	0	508	
14	0	0	0	0	501	
15	0	0	0	0	501	
0	0	0	0	0	502	
1	0	0	0	0	500	
2	0	0	0	0	498	
3	0	0	0	0	492	
4	0	0	0	0	496	
5	0	0	0	0	493	
6	0	0	0	0	496	
7	0	0	0	0	504	
8	0	0	0	0	511	
9	0	0	0	0	510	
10	0	0	0	0	503	
11	0	0	0	0	496	
12	0	0	0	0	491	
13	0	0	0	0	483	
14	0	0	0	0	476	
15	0	0	0	0	472	
0	0	0	0	0	478	
1	0	0	0	0	491	
2	0	0	0	0	502	
3	0	0	0	0	523	
4	0	0	0	0	538	
5	0	0	0	0	543	
6	0	0	0	0	545	
7	0	0	0	0	543	
8	0	0	0	0	537	
9	0	0	0	0	533	
10	0	0	0	0	527	
11	0	0	0	0	519	
12	0	0	0	0	510	
13	0	0	0	0	499	
14	0	0	0	0	495	
15	0	0	0	0	501	
0	0	0	0	0	509	
1	0	0	0	0	512	
2	0	0	0	0	517	
3	0	0	0	0	524	
4	0	0	0	0	535	
5	0	0	0	0	540	
6	0	0	0	0	536	
7	0	0	0	0	533	
8	0	0	0	0	530	
9	0	0	0	0	526	
10	0	0	0	0	516	
11	0	0	0	0	508	
12	0	0	0	0	505	
13	0	0	0	0	504	
14	0	0	0	0	507	
15	0	0	0	0	506	
0	0	0	0	0	510	
1	0	0	0	0	511	
2	0	0	0	0	515	
3	0	0	0	0	521	
4	0	0	0	0	525	
5	0	0	0	0	520	
6	0	0	0	0	517	
7	0	0	0	0	511	
8	0	0	0	0	501	
9	0	0	0	0	492	
10	0	0	0	0	487	
11	0	0	0	0	489	
12	0	0	0	0	494	
13	0	0	0	0	502	
14	0	0	0	0	511	
15	0	0	0	0	521	
0	0	0	0	0	533	
1	0	0	0	0	538	
2	0	0	0	0	532	
3	0	0	0	0	523	
4	0	0	0	0	515	
5	0	0	0	0	514	
6	0	0	0	0	508	
7	0	0	0	0	504	
8	0	0	0	0	504	
9	0	0	0	0	510	
10	0	0	0	0	514	
11	0	0	0	0	519	
12	0	0	0	0	524	
13	0	0	0	0	533	
14	0	0	0	0	542	
15	0	0	0	0	547	
0	0	0	0	0	552	
1	0	0	0	0	552	
2	0	0	0	0	549	
3	0	0	0	0	546	
4	0	0	0	0	541	
5	0	0	0	0	538	
6	0	0	0	0	531	
7	0	0	0	0	522	
8	0	0	0	0	515	
9	0	0	0	0	506	
10	0	0	0	0	501	
11	0	0	0	0	504	
12	0	0	0	0	503	
13	0	0	0	0	507	
14	0	0	0	0	518	
15	0	0	0	0	522	
0	0	0	0	0	523	
1	0	0	0	0	522	
2	0	0	0	0	524	
3	0	0	0	0	518	
4	0	0	0	0	515	
5	0	0	0	0	516	
6	0	0	0	0	504	
7	0	0	0	0	495	
8	0	0	0	0	496	
9	0	0	0	0	490	
10	0	0	0	0	496	
11	0	0	0	0	499	
12	0	0	0	0	503	
13	0	0	0	0	515	
14	0	0	0	0	525	
15	0	0	0	0	524	
0	0	0	0	0	519	
1	0	0	0	0	517	
2	0	0	0	0	516	
3	0	0	0	0	516	
4	0	0	0	0	515	
5	0	0	0	0	512	
6	0	0	0	0	504	
7	0	0	0	0	495	
8	0	0	0	0	495	
9	0	0	0	0	497	
10	0	0	0	0	495	
11	0	0	0	0	497	
12	0	0	0	0	496	
13	0	0	0	0	497	
14	0	0	0	0	503	
15	0	0	0	0	504	
0	0	0	0	0	508	
1	0	0	0	0	515	
2	0	0	0	0	519	
3	0	0	0	0	519	
4	0	0	0	0	520	
5	0	0	0	0	521	
6	0	0	0	0	524	
7	0	0	0	0	528	
8	0	0	0	0	530	
9	0	0	0	0	528	
10	0	0	0	0	528	
11	0	0	0	0	525	
12	0	0	0	0	524	
13	0	0	0	0	524	
14	0	0	0	0	523	
15	0	0	0	0	519	
0	0	0	0	0	511	
1	0	0	0	0	502	
2	0	0	0	0	497	
3	0	0	0	0	495	
4	0	0	0	0	489	
5	0	0	0	0	487	
6	0	0	0	0	487	
7	0	0	0	0	494	
8	0	0	0	0	499	
9	0	0	0	0	507	
10	0	0	0	0	512	
11	0	0	0	0	524	
12	0	0	0	0	529	
13	0	0	0	0	524	
14	0	0	0	0	515	
15	0	0	0	0	509	
0	0	0	0	0	502	
1	0	0	0	0	494	
2	0	0	0	0	482	
3	0	0	0	0	476	
4	0	0	0	0	473	
5	0	0	0	0	472	
6	0	0	0	0	479	
7	0	0	0	0	483	
8	0	0	0	0	494	
9	0	0	0	0	502	
10	0	0	0	0	504	
11	0	0	0	0	504	
12	0	0	0	0	502	
13	0	0	0	0	501	
14	0	0	0	0	498	
15	0	0	0	0	499	
0	0	0	0	0	499	
1	0	0	0	0	499	
2	0	0	0	0	508	
3	0	0	0	0	518	
4	0	0	0	0	524	
5	0	0	0	0	528	
6	0	0	0	0	530	
7	0	0	0	0	528	
8	0	0	0	0	515	
9	0	0	0	0	503	
10	0	0	0	0	492	
11	0	0	0	0	491	
12	0	0	0	0	491	
13	0	0	0	0	496	
14	0	0	0	0	499	
15	0	0	0	0	499	
0	0	0	0	0	503	
1	0	0	0	0	504	
2	0	0	0	0	501	
3	0	0	0	0	496	
4	0	0	0	0	492	
5	0	0	0	0	491	
6	0	0	0	0	495	
7	0	0	0	0	495	
8	0	0	0	0	496	
9	0	0	0	0	500	
10	0	0	0	0	502	
11	0	0	0	0	509	
12	0	0	0	0	513	
13	0	0	0	0	515	
14	0	0	0	0	519	
15	0	0	0	0	521	
0	0	0	0	0	521	
1	0	0	0	0	512	
2	0	0	0	0	506	
3	0	0	0	0	499	
4	0	0	0	0	490	
5	0	0	0	0	490	
6	0	0	0	0	489	
7	0	0	0	0	490	
8	0	0	0	0	493	
9	0	0	0	0	493	
10	0	0	0	0	490	
11	0	0	0	0	499	
12	0	0	0	0	503	
13	0	0	0	0	503	
14	0	0	0	0	504	
15	0	0	0	0	507	
0	0	0	0	0	507	
1	0	0	0	0	506	
2	0	0	0	0	503	
3	0	0	0	0	496	
4	0	0	0	0	496	
5	0	0	0	0	499	
6	0	0	0	0	500	
7	0	0	0	0	504	
8	0	0	0	0	513	
9	0	0	0	0	523	
10	0	0	0	0	525	
11	0	0	0	0	521	
12	0	0	0	0	519	
13	0	0	0	0	513	
14	0	0	0	0	505	
15	0	0	0	0	499	
0	0	0	0	0	497	
1	0	0	0	0	495	
2	0	0	0	0	496	
3	0	0	0	0	499	
4	0	0	0	0	498	
5	0	0	0	0	501	
6	0	0	0	0	506	
7	0	0	0	0	510	
8	0	0	0	0	515	
9	0	0	0	0	523	
10	0	0	0	0	524	
11	0	0	0	0	526	
12	0	0	0	0	524	
13	0	0	0	0	521	
14	0	0	0	0	518	
15	0	0	0	0	513	
0	0	0	0	0	509	
1	0	0	0	0	507	
2	0	0	0	0	512	
3	0	0	0	0	511	
4	0	0	0	0	505	
5	0	0	0	0	498	
6	0	0	0	0	494	
7	0	0	0	0	497	
8	0	0	0	0	496	
9	0	0	0	0	497	
10	0	0	0	0	495	
11	0	0	0	0	496	
12	0	0	0	0	495	
13	0	0	0	0	488	
14	0	0	0	0	486	
15	0	0	0	0	486	
0	0	0	0	0	478	
1	0	0	0	0	470	
2	0	0	0	0	469	
3	0	0	0	0	472	
4	0	0	0	0	480	
5	0	0	0	0	487	
6	0	0	0	0	498	
7	0	0	0	0	503	
8	0	0	0	0	506	
9	0	0	0	0	505	
10	0	0	0	0	503	
11	0	0	0	0	496	
12	0	0	0	0	491	
13	0	0	0	0	486	
14	0	0	0	0	484	
15	0	0	0	0	480	
0	0	0	0	0	475	
1	0	0	0	0	465	
2	0	0	0	0	460	
3	0	0	0	0	462	
4	0	0	0	0	464	
5	0	0	0	0	467	
6	0	0	0	0	471	
7	0	0	0	0	478	
8	0	0	0	0	485	
9	0	0	0	0	493	
10	0	0	0	0	499	
11	0	0	0	0	501	
12	0	0	0	0	497	
13	0	0	0	0	494	
14	0	0	0	0	490	
15	0	0	0	0	483	
0	0	0	0	0	480	
1	0	0	0	0	477	
2	0	0	0	0	475	
3	0	0	0	0	469	
4	0	0	0	0	462	
5	0	0	0	0	460	
6	0	0	0	0	457	
7	0	0	0	0	459	
8	0	0	0	0	463	
9	0	0	0	0	470	
10	0	0	0	0	481	
11	0	0	0	0	489	
12	0	0	0	0	500	
13	0	0	0	0	504	
14	0	0	0	0	508	
15	0	0	0	0	508	
0	0	0	0	0	504	
1	0	0	0	0	500	
2	0	0	0	0	503	
3	0	0	0	0	498	
4	0	0	0	0	497	
5	0	0	0	0	499	
6	0	0	0	0	505	
7	0	0	0	0	505	
8	0	0	0	0	509	
9	0	0	0	0	512	
10	0	0	0	0	514	
11	0	0	0	0	512	
12	0	0	0	0	509	
13	0	0	0	0	507	
14	0	0	0	0	504	
15	0	0	0	0	495	
0	0	0	0	0	492	
1	0	0	0	0	491	
2	0	0	0	0	495	
3	0	0	0	0	498	
4	0	0	0	0	498	
5	0	0	0	0	506	
6	0	0	0	0	514	
7	0	0	0	0	516	
8	0	0	0	0	526	
9	0	0	0	0	535	
10	0	0	0	0	543	
11	0	0	0	0	547	
12	0	0	0	0	550	
13	0	0	0	0	550	
14	0	0	0	0	548	
15	0	0	0	0	547	
0	0	0	0	0	542	
1	0	0	0	0	531	
2	0	0	0	0	526	
3	0	0	0	0	517	
4	0	0	0	0	518	
5	0	0	0	0	521	
6	0	0	0	0	528	
7	0	0	0	0	534	
8	0	0	0	0	541	
9	0	0	0	0	550	
10	0	0	0	0	552	
11	0	0	0	0	552	
12	0	0	0	0	548	
13	0	0	0	0	543	
14	0	0	0	0	541	
15	0	0	0	0	542	
0	0	0	0	0	540	
1	0	0	0	0	535	
2	0	0	0	0	532	
3	0	0	0	0	535	
4	0	0	0	0	540	
5	0	0	0	0	540	
6	0	0	0	0	539	
7	0	0	0	0	537	
8	0	0	0	0	538	
9	0	0	0	0	537	
10	0	0	0	0	537	
11	0	0	0	0	539	
12	0	0	0	0	536	
13	0	0	0	0	535	
14	0	0	0	0	532	
15	0	0	0	0	528	
0	0	0	0	0	527	
1	0	0	0	0	527	
2	0	0	0	0	524	
3	0	0	0	0	519	
4	0	0	0	0	517	
5	0	0	0	0	519	
6	0	0	0	0	523	
7	0	0	0	0	529	
8	0	0	0	0	535	
9	0	0	0	0	544	
10	0	0	0	0	548	
11	0	0	0	0	549	
12	0	0	0	0	549	
13	0	0	0	0	553	
14	0	0	0	0	554	
15	0	0	0	0	560	
0	0	0	0	0	567	
1	0	0	0	0	572	
2	0	0	0	0	574	
3	0	0	0	0	576	
4	0	0	0	0	574	
5	0	0	0	0	564	
6	0	0	0	0	546	
7	0	0	0	0	531	
8	0	0	0	0	518	
9	0	0	0	0	499	
10	0	0	0	0	473	
11	0	0	0	0	452	
12	0	0	0	0	431	
13	0	0	0	0	403	
14	0	0	0	0	387	
15	0	0	0	0	380	
0	0	0	0	0	359	
1	0	0	0	0	344	
2	0	0	0	0	327	
3	0	0	0	0	304	
4	0	0	0	0	275	
5	0	0	0	0	246	
6	0	0	0	0	223	
7	0	0	0	0	214	
8	0	0	0	0	214	
9	0	0	0	0	223	
10	0	0	0	0	244	
11	0	0	0	0	267	
12	0	0	0	0	295	
13	0	0	0	0	317	
14	0	0	0	0	338	
15	0	0	0	0	367	
0	0	0	0	0	393	
1	0	0	0	0	423	
2	0	0	0	0	447	
3	0	0	0	0	463	
4	0	0	0	0	474	
5	0	0	0	0	481	
6	0	0	0	0	480	
7	0	0	0	0	477	
8	0	0	0	0	472	
9	0	0	0	0	472	
10	0	0	0	0	479	
11	0	0	0	0	491	
12	0	0	0	0	502	
13	0	0	0	0	517	
14	0	0	0	0	533	
15	0	0	0	0	556	
0	0	0	0	0	584	
1	0	0	0	0	611	
2	0	0	0	0	630	
3	0	0	0	0	647	
4	0	0	0	0	657	
5	0	0	0	0	661	
6	0	0	0	0	660	
7	0	0	0	0	655	
8	0	0	0	0	652	
9	0	0	0	0	648	
10	0	0	0	0	647	
11	0	0	0	0	647	
12	0	0	0	0	649	
13	0	0	0	0	653	
14	0	0	0	0	656	
15	0	0	0	0	655	
0	0	0	0	0	657	
1	0	0	0	0	653	
2	0	0	0	0	649	
3	0	0	0	0	643	
4	0	0	0	0	639	
5	0	0	0	0	632	
6	0	0	0	0	625	
7	0	0	0	0	621	
8	0	0	0	0	615	
9	0	0	0	0	607	
10	0	0	0	0	600	
11	0	0	0	0	595	
12	0	0	0	0	590	
13	0	0	0	0	582	
14	0	0	0	0	575	
15	0	0	0	0	570	
0	0	0	0	0	567	
1	0	0	0	0	566	
2	0	0	0	0	564	
3	0	0	0	0	555	
4	0	0	0	0	548	
5	0	0	0	0	543	
6	0	0	0	0	542	
7	0	0	0	0	539	
8	0	0	0	0	536	
9	0	0	0	0	534	
10	0	0	0	0	533	
11	0	0	0	0	535	
12	0	0	0	0	536	
13	0	0	0	0	537	
14	0	0	0	0	542	
15	0	0	0	0	544	
0	0	0	0	0	550	
1	0	0	0	0	550	
2	0	0	0	0	546	
3	0	0	0	0	537	
4	0	0	0	0	529	
5	0	0	0	0	521	
6	0	0	0	0	515	
7	0	0	0	0	512	
8	0	0	0	0	511	
9	0	0	0	0	512	
10	0	0	0	0	515	
11	0	0	0	0	519	
12	0	0	0	0	523	
13	0	0	0	0	527	
14	0	0	0	0	529	
15	0	0	0	0	532	
0	0	0	0	0	539	
1	0	0	0	0	542	
2	0	0	0	0	537	
3	0	0	0	0	532	
4	0	0	0	0	528	
5	0	0	0	0	524	
6	0	0	0	0	520	
7	0	0	0	0	519	
8	0	0	0	0	518	
9	0	0	0	0	519	
10	0	0	0	0	521	
11	0	0	0	0	522	
12	0	0	0	0	518	
13	0	0	0	0	519	
14	0	0	0	0	518	
15	0	0	0	0	510	
0	0	0	0	0	511	
1	0	0	0	0	512	
2	0	0	0	0	512	
3	0	0	0	0	512	
4	0	0	0	0	513	
5	0	0	0	0	516	
6	0	0	0	0	516	
7	0	0	0	0	510	
8	0	0	0	0	502	
9	0	0	0	0	494	
10	0	0	0	0	494	
11	0	0	0	0	495	
12	0	0	0	0	498	
13	0	0	0	0	501	
14	0	0	0	0	506	
15	0	0	0	0	514	
0	0	0	0	0	526	
1	0	0	0	0	531	
2	0	0	0	0	537	
3	0	0	0	0	539	
4	0	0	0	0	540	
5	0	0	0	0	534	
6	0	0	0	0	524	
7	0	0	0	0	516	
8	0	0	0	0	503	
9	0	0	0	0	496	
10	0	0	0	0	488	
11	0	0	0	0	484	
12	0	0	0	0	486	
13	0	0	0	0	488	
14	0	0	0	0	495	
15	0	0	0	0	504	
0	0	0	0	0	510	
1	0	0	0	0	520	
2	0	0	0	0	528	
3	0	0	0	0	533	
4	0	0	0	0	525	
5	0	0	0	0	518	
6	0	0	0	0	511	
7	0	0	0	0	505	
8	0	0	0	0	496	
9	0	0	0	0	491	
10	0	0	0	0	490	
11	0	0	0	0	495	
12	0	0	0	0	498	
13	0	0	0	0	497	
14	0	0	0	0	495	
15	0	0	0	0	497	
0	0	0	0	0	497	
1	0	0	0	0	498	
2	0	0	0	0	498	
3	0	0	0	0	498	
4	0	0	0	0	501	
5	0	0	0	0	504	
6	0	0	0	0	503	
7	0	0	0	0	508	
8	0	0	0	0	504	
9	0	0	0	0	494	
10	0	0	0	0	488	
11	0	0	0	0	486	
12	0	0	0	0	485	
13	0	0	0	0	486	
14	0	0	0	0	489	
15	0	0	0	0	494	
0	0	0	0	0	495	
1	0	0	0	0	498	
2	0	0	0	0	502	
3	0	0	0	0	502	
4	0	0	0	0	503	
5	0	0	0	0	499	
6	0	0	0	0	496	
7	0	0	0	0	491	
8	0	0	0	0	483	
9	0	0	0	0	476	
10	0	0	0	0	477	
11	0	0	0	0	475	
12	0	0	0	0	468	
13	0	0	0	0	470	
14	0	0	0	0	476	
15	0	0	0	0	485	
0	0	0	0	0	488	
1	0	0	0	0	490	
2	0	0	0	0	491	
3	0	0	0	0	492	
4	0	0	0	0	490	
5	0	0	0	0	491	
6	0	0	0	0	487	
7	0	0	0	0	480	
8	0	0	0	0	475	
9	0	0	0	0	471	
10	0	0	0	0	468	
11	0	0	0	0	470	
12	0	0	0	0	471	
13	0	0	0	0	472	
14	0	0	0	0	473	
15	0	0	0	0	476	
0	0	0	0	0	476	
1	0	0	0	0	478	
2	0	0	0	0	480	
3	0	0	0	0	475	
4	0	0	0	0	470	
5	0	0	0	0	467	
6	0	0	0	0	464	
7	0	0	0	0	465	
8	0	0	0	0	465	
9	0	0	0	0	468	
10	0	0	0	0	476	
11	0	0	0	0	480	
12	0	0	0	0	484	
13	0	0	0	0	488	
14	0	0	0	0	496	
15	0	0	0	0	494	
0	0	0	0	0	485	
1	0	0	0	0	476	
2	0	0	0	0	467	
3	0	0	0	0	464	
4	0	0	0	0	459	
5	0	0	0	0	455	
6	0	0	0	0	457	
7	0	0	0	0	466	
8	0	0	0	0	474	
9	0	0	0	0	483	
10	0	0	0	0	488	
11	0	0	0	0	498	
12	0	0	0	0	505	
13	0	0	0	0	505	
14	0	0	0	0	504	
15	0	0	0	0	504	
0	0	0	0	0	501	
1	0	0	0	0	497	
2	0	0	0	0	493	
3	0	0	0	0	492	
4	0	0	0	0	494	
5	0	0	0	0	497	
6	0	0	0	0	494	
7	0	0	0	0	495	
8	0	0	0	0	496	
9	0	0	0	0	496	
10	0	0	0	0	499	
11	0	0	0	0	498	
12	0	0	0	0	495	
13	0	0	0	0	495	
14	0	0	0	0	492	
15	0	0	0	0	488	
0	0	0	0	0	487	
1	0	0	0	0	489	
2	0	0	0	0	495	
3	0	0	0	0	503	
4	0	0	0	0	513	
5	0	0	0	0	518	
6	0	0	0	0	518	
7	0	0	0	0	512	
8	0	0	0	0	509	
9	0	0	0	0	511	
10	0	0	0	0	512	
11	0	0	0	0	513	
12	0	0	0	0	515	
13	0	0	0	0	519	
14	0	0	0	0	525	
15	0	0	0	0	526	
0	0	0	0	0	528	
1	0	0	0	0	527	
2	0	0	0	0	523	
3	0	0	0	0	520	
4	0	0	0	0	515	
5	0	0	0	0	510	
6	0	0	0	0	504	
7	0	0	0	0	501	
8	0	0	0	0	499	
9	0	0	0	0	497	
10	0	0	0	0	499	
11	0	0	0	0	503	
12	0	0	0	0	512	
13	0	0	0	0	518	
14	0	0	0	0	522	
15	0	0	0	0	521	
0	0	0	0	0	522	
1	0	0	0	0	524	
2	0	0	0	0	523	
3	0	0	0	0	520	
4	0	0	0	0	513	
5	0	0	0	0	513	
6	0	0	0	0	517	
7	0	0	0	0	521	
8	0	0	0	0	527	
9	0	0	0	0	532	
10	0	0	0	0	533	
11	0	0	0	0	531	
12	0	0	0	0	529	
13	0	0	0	0	525	
14	0	0	0	0	524	
15	0	0	0	0	526	
0	0	0	0	0	527	
1	0	0	0	0	527	
2	0	0	0	0	525	
3	0	0	0	0	527	
4	0	0	0	0	528	
5	0	0	0	0	528	
6	0	0	0	0	527	
7	0	0	0	0	523	
8	0	0	0	0	524	
9	0	0	0	0	529	
10	0	0	0	0	530	
11	0	0	0	0	532	
12	0	0	0	0	530	
13	0	0	0	0	532	
14	0	0	0	0	527	
15	0	0	0	0	525	
0	0	0	0	0	523	
1	0	0	0	0	521	
2	0	0	0	0	522	
3	0	0	0	0	523	
4	0	0	0	0	521	
5	0	0	0	0	523	
6	0	0	0	0	520	
7	0	0	0	0	523	
8	0	0	0	0	525	
9	0	0	0	0	528	
10	0	0	0	0	529	
11	0	0	0	0	527	
12	0	0	0	0	525	
13	0	0	0	0	526	
14	0	0	0	0	523	
15	0	0	0	0	525	
0	0	0	0	0	527	
1	0	0	0	0	529	
2	0	0	0	0	525	
3	0	0	0	0	519	
4	0	0	0	0	515	
5	0	0	0	0	504	
6	0	0	0	0	500	
7	0	0	0	0	500	
8	0	0	0	0	501	
9	0	0	0	0	509	
10	0	0	0	0	512	
11	0	0	0	0	517	
12	0	0	0	0	519	
13	0	0	0	0	518	
14	0	0	0	0	516	
15	0	0	0	0	515	
0	0	0	0	0	520	
1	0	0	0	0	520	
2	0	0	0	0	519	
3	0	0	0	0	523	
4	0	0	0	0	520	
5	0	0	0	0	516	
6	0	0	0	0	510	
7	0	0	0	0	507	
8	0	0	0	0	516	
9	0	0	0	0	520	
10	0	0	0	0	520	
11	0	0	0	0	518	
12	0	0	0	0	510	
13	0	0	0	0	505	
14	0	0	0	0	504	
15	0	0	0	0	505	
0	0	0	0	0	504	
1	0	0	0	0	503	
2	0	0	0	0	505	
3	0	0	0	0	504	
4	0	0	0	0	506	
5	0	0	0	0	505	
6	0	0	0	0	510	
7	0	0	0	0	512	
8	0	0	0	0	510	
9	0	0	0	0	507	
10	0	0	0	0	506	
11	0	0	0	0	499	
12	0	0	0	0	496	
13	0	0	0	0	495	
14	0	0	0	0	495	
15	0	0	0	0	495	
0	0	0	0	0	500	
1	0	0	0	0	509	
2	0	0	0	0	514	
3	0	0	0	0	517	
4	0	0	0	0	517	
5	0	0	0	0	517	
6	0	0	0	0	517	
7	0	0	0	0	509	
8	0	0	0	0	500	
9	0	0	0	0	497	
10	0	0	0	0	493	
11	0	0	0	0	487	
12	0	0	0	0	483	
13	0	0	0	0	487	
14	0	0	0	0	492	
15	0	0	0	0	497	
0	0	0	0	0	503	
1	0	0	0	0	510	
2	0	0	0	0	519	
3	0	0	0	0	519	
4	0	0	0	0	513	
5	0	0	0	0	511	
6	0	0	0	0	504	
7	0	0	0	0	496	
8	0	0	0	0	492	
9	0	0	0	0	488	
10	0	0	0	0	491	
11	0	0	0	0	499	
12	0	0	0	0	507	
13	0	0	0	0	513	
14	0	0	0	0	515	
15	0	0	0	0	517	
0	0	0	0	0	509	
1	0	0	0	0	507	
2	0	0	0	0	501	
3	0	0	0	0	502	
4	0	0	0	0	498	
5	0	0	0	0	502	
6	0	0	0	0	503	
7	0	0	0	0	504	
8	0	0	0	0	507	
9	0	0	0	0	510	
10	0	0	0	0	516	
11	0	0	0	0	519	
12	0	0	0	0	522	
13	0	0	0	0	519	
14	0	0	0	0	516	
15	0	0	0	0	510	
0	0	0	0	0	502	
1	0	0	0	0	497	
2	0	0	0	0	496	
3	0	0	0	0	497	
4	0	0	0	0	495	
5	0	0	0	0	490	
6	0	0	0	0	492	
7	0	0	0	0	491	
8	0	0	0	0	490	
9	0	0	0	0	492	
10	0	0	0	0	494	
11	0	0	0	0	494	
12	0	0	0	0	497	
13	0	0	0	0	500	
14	0	0	0	0	501	
15	0	0	0	0	504	
0	0	0	0	0	504	
1	0	0	0	0	504	
2	0	0	0	0	501	
3	0	0	0	0	500	
4	0	0	0	0	499	
5	0	0	0	0	496	
6	0	0	0	0	496	
7	0	0	0	0	497	
8	0	0	0	0	498	
9	0	0	0	0	503	
10	0	0	0	0	506	
11	0	0	0	0	512	
12	0	0	0	0	516	
13	0	0	0	0	516	
14	0	0	0	0	515	
15	0	0	0	0	509	
0	0	0	0	0	504	
1	0	0	0	0	499	
2	0	0	0	0	493	
3	0	0	0	0	494	
4	0	0	0	0	496	
5	0	0	0	0	499	
6	0	0	0	0	504	
7	0	0	0	0	511	
8	0	0	0	0	519	
9	0	0	0	0	519	
10	0	0	0	0	514	
11	0	0	0	0	508	
12	0	0	0	0	502	
13	0	0	0	0	504	
14	0	0	0	0	503	
15	0	0	0	0	503	
0	0	0	0	0	499	
1	0	0	0	0	499	
2	0	0	0	0	500	
3	0	0	0	0	501	
4	0	0	0	0	504	
5	0	0	0	0	511	
6	0	0	0	0	509	
7	0	0	0	0	509	
8	0	0	0	0	512	
9	0	0	0	0	513	
10	0	0	0	0	515	
11	0	0	0	0	519	
12	0	0	0	0	520	
13	0	0	0	0	518	
14	0	0	0	0	513	
15	0	0	0	0	511	
0	0	0	0	0	505	
1	0	0	0	0	497	
2	0	0	0	0	489	
3	0	0	0	0	484	
4	0	0	0	0	480	
5	0	0	0	0	480	
6	0	0	0	0	483	
7	0	0	0	0	486	
8	0	0	0	0	496	
9	0	0	0	0	506	
10	0	0	0	0	505	
11	0	0	0	0	508	
12	0	0	0	0	508	
13	0	0	0	0	505	
14	0	0	0	0	506	
15	0	0	0	0	508	
0	0	0	0	0	513	
1	0	0	0	0	518	
2	0	0	0	0	520	
3	0	0	0	0	522	
4	0	0	0	0	520	
5	0	0	0	0	519	
6	0	0	0	0	518	
7	0	0	0	0	514	
8	0	0	0	0	512	
9	0	0	0	0	508	
10	0	0	0	0	500	
11	0	0	0	0	495	
12	0	0	0	0	490	
13	0	0	0	0	489	
14	0	0	0	0	486	
15	0	0	0	0	486	
0	0	0	0	0	483	
1	0	0	0	0	484	
2	0	0	0	0	484	
3	0	0	0	0	486	
4	0	0	0	0	488	
5	0	0	0	0	496	
6	0	0	0	0	496	
7	0	0	0	0	494	
8	0	0	0	0	492	
9	0	0	0	0	493	
10	0	0	0	0	492	
11	0	0	0	0	494	
12	0	0	0	0	494	
13	0	0	0	0	492	
14	0	0	0	0	487	
15	0	0	0	0	481	
0	0	0	0	0	484	
1	0	0	0	0	485	
2	0	0	0	0	480	
3	0	0	0	0	480	
4	0	0	0	0	478	
5	0	0	0	0	473	
6	0	0	0	0	470	
7	0	0	0	0	470	
8	0	0	0	0	471	
9	0	0	0	0	469	
10	0	0	0	0	468	
11	0	0	0	0	466	
12	0	0	0	0	462	
13	0	0	0	0	465	
14	0	0	0	0	468	
15	0	0	0	0	471	
0	0	0	0	0	476	
1	0	0	0	0	479	
2	0	0	0	0	480	
3	0	0	0	0	480	
4	0	0	0	0	483	
5	0	0	0	0	483	
6	0	0	0	0	478	
7	0	0	0	0	480	
8	0	0	0	0	484	
9	0	0	0	0	484	
10	0	0	0	0	476	
11	0	0	0	0	475	
12	0	0	0	0	470	
13	0	0	0	0	467	
14	0	0	0	0	466	
15	0	0	0	0	470	
0	0	0	0	0	472	
1	0	0	0	0	475	
2	0	0	0	0	479	
3	0	0	0	0	487	
4	0	0	0	0	493	
5	0	0	0	0	496	
6	0	0	0	0	501	
7	0	0	0	0	511	
8	0	0	0	0	517	
9	0	0	0	0	523	
10	0	0	0	0	522	
11	0	0	0	0	522	
12	0	0	0	0	523	
13	0	0	0	0	519	
14	0	0	0	0	513	
15	0	0	0	0	511	
0	0	0	0	0	510	
1	0	0	0	0	508	
2	0	0	0	0	505	
3	0	0	0	0	502	
4	0	0	0	0	503	
5	0	0	0	0	507	
6	0	0	0	0	511	
7	0	0	0	0	514	
8	0	0	0	0	519	
9	0	0	0	0	519	
10	0	0	0	0	519	
11	0	0	0	0	524	
12	0	0	0	0	527	
13	0	0	0	0	529	
14	0	0	0	0	529	
15	0	0	0	0	530	
0	0	0	0	0	532	
1	0	0	0	0	535	
2	0	0	0	0	535	
3	0	0	0	0	531	
4	0	0	0	0	532	
5	0	0	0	0	535	
6	0	0	0	0	535	
7	0	0	0	0	534	
8	0	0	0	0	537	
9	0	0	0	0	542	
10	0	0	0	0	543	
11	0	0	0	0	540	
12	0	0	0	0	541	
13	0	0	0	0	544	
14	0	0	0	0	539	
15	0	0	0	0	531	
0	0	0	0	0	528	
1	0	0	0	0	526	
2	0	0	0	0	523	
3	0	0	0	0	519	
4	0	0	0	0	516	
5	0	0	0	0	516	
6	0	0	0	0	517	
7	0	0	0	0	517	
8	0	0	0	0	523	
9	0	0	0	0	526	
10	0	0	0	0	529	
11	0	0	0	0	531	
12	0	0	0	0	531	
13	0	0	0	0	531	
14	0	0	0	0	531	
15	0	0	0	0	531	
0	0	0	0	0	537	
1	0	0	0	0	537	
2	0	0	0	0	536	
3	0	0	0	0	533	
4	0	0	0	0	531	
5	0	0	0	0	534	
6	0	0	0	0	539	
7	0	0	0	0	542	
8	0	0	0	0	545	
9	0	0	0	0	548	
10	0	0	0	0	551	
11	0	0	0	0	554	
12	0	0	0	0	559	
13	0	0	0	0	560	
14	0	0	0	0	556	
15	0	0	0	0	552	
0	0	0	0	0	545	
1	0	0	0	0	542	
2	0	0	0	0	540	
3	0	0	0	0	534	
4	0	0	0	0	530	
5	0	0	0	0	520	
6	0	0	0	0	510	
7	0	0	0	0	500	
8	0	0	0	0	485	
9	0	0	0	0	470	
10	0	0	0	0	453	
11	0	0	0	0	436	
12	0	0	0	0	421	
13	0	0	0	0	404	
14	0	0	0	0	388	
15	0	0	0	0	372	
0	0	0	0	0	352	
1	0	0	0	0	329	
2	0	0	0	0	304	
3	0	0	0	0	276	
4	0	0	0	0	249	
5	0	0	0	0	225	
6	0	0	0	0	211	
7	0	0	0	0	202	
8	0	0	0	0	203	
9	0	0	0	0	214	
10	0	0	0	0	234	
11	0	0	0	0	263	
12	0	0	0	0	288	
13	0	0	0	0	313	
14	0	0	0	0	339	
15	0	0	0	0	368	
0	0	0	0	0	398	
1	0	0	0	0	416	
2	0	0	0	0	437	
3	0	0	0	0	459	
4	0	0	0	0	474	
5	0	0	0	0	481	
6	0	0	0	0	481	
7	0	0	0	0	477	
8	0	0	0	0	473	
9	0	0	0	0	481	
10	0	0	0	0	496	
11	0	0	0	0	508	
12	0	0	0	0	523	
13	0	0	0	0	539	
14	0	0	0	0	558	
15	0	0	0	0	572	
0	0	0	0	0	587	
1	0	0	0	0	610	
2	0	0	0	0	632	
3	0	0	0	0	647	
4	0	0	0	0	657	
5	0	0	0	0	659	
6	0	0	0	0	659	
7	0	0	0	0	657	
8	0	0	0	0	655	
9	0	0	0	0	654	
10	0	0	0	0	647	
11	0	0	0	0	638	
12	0	0	0	0	632	
13	0	0	0	0	629	
14	0	0	0	0	636	
15	0	0	0	0	640	
0	0	0	0	0	642	
1	0	0	0	0	643	
2	0	0	0	0	643	
3	0	0	0	0	640	
4	0	0	0	0	634	
5	0	0	0	0	627	
6	0	0	0	0	615	
7	0	0	0	0	606	
8	0	0	0	0	596	
9	0	0	0	0	590	
10	0	0	0	0	586	
11	0	0	0	0	580	
12	0	0	0	0	579	
13	0	0	0	0	579	
14	0	0	0	0	575	
15	0	0	0	0	566	
0	0	0	0	0	553	
1	0	0	0	0	549	
2	0	0	0	0	552	
3	0	0	0	0	549	
4	0	0	0	0	548	
5	0	0	0	0	548	
6	0	0	0	0	550	
7	0	0	0	0	546	
8	0	0	0	0	550	
9	0	0	0	0	556	
10	0	0	0	0	559	
11	0	0	0	0	555	
12	0	0	0	0	552	
13	0	0	0	0	546	
14	0	0	0	0	545	
15	0	0	0	0	542	
0	0	0	0	0	538	
1	0	0	0	0	537	
2	0	0	0	0	536	
3	0	0	0	0	532	
4	0	0	0	0	527	
5	0	0	0	0	523	
6	0	0	0	0	519	
7	0	0	0	0	515	
8	0	0	0	0	512	
9	0	0	0	0	510	
10	0	0	0	0	507	
11	0	0	0	0	506	
12	0	0	0	0	506	
13	0	0	0	0	508	
14	0	0	0	0	515	
15	0	0	0	0	523	
0	0	0	0	0	531	
1	0	0	0	0	538	
2	0	0	0	0	540	
3	0	0	0	0	540	
4	0	0	0	0	539	
5	0	0	0	0	537	
6	0	0	0	0	533	
7	0	0	0	0	532	
8	0	0	0	0	527	
9	0	0	0	0	519	
10	0	0	0	0	514	
11	0	0	0	0	512	
12	0	0	0	0	511	
13	0	0	0	0	508	
14	0	0	0	0	506	
15	0	0	0	0	506	
0	0	0	0	0	505	
1	0	0	0	0	508	
2	0	0	0	0	505	
3	0	0	0	0	507	
4	0	0	0	0	510	
5	0	0	0	0	511	
6	0	0	0	0	511	
7	0	0	0	0	512	
8	0	0	0	0	511	
9	0	0	0	0	509	
10	0	0	0	0	507	
11	0	0	0	0	510	
12	0	0	0	0	511	
13	0	0	0	0	507	
14	0	0	0	0	506	
15	0	0	0	0	507	
0	0	0	0	0	502	
1	0	0	0	0	500	
2	0	0	0	0	498	
3	0	0	0	0	497	
4	0	0	0	0	495	
5	0	0	0	0	496	
6	0	0	0	0	497	
7	0	0	0	0	500	
8	0	0	0	0	505	
9	0	0	0	0	512	
10	0	0	0	0	516	
11	0	0	0	0	516	
12	0	0	0	0	515	
13	0	0	0	0	517	
14	0	0	0	0	518	
15	0	0	0	0	516	
0	0	0	0	0	512	
1	0	0	0	0	507	
2	0	0	0	0	503	
3	0	0	0	0	497	
4	0	0	0	0	491	
5	0	0	0	0	487	
6	0	0	0	0	487	
7	0	0	0	0	484	
8	0	0	0	0	486	
9	0	0	0	0	494	
10	0	0	0	0	502	
11	0	0	0	0	503	
12	0	0	0	0	507	
13	0	0	0	0	507	
14	0	0	0	0	505	
15	0	0	0	0	502	
0	0	0	0	0	497	
1	0	0	0	0	495	
2	0	0	0	0	494	
3	0	0	0	0	494	
4	0	0	0	0	491	
5	0	0	0	0	495	
6	0	0	0	0	496	
7	0	0	0	0	497	
8	0	0	0	0	498	
9	0	0	0	0	499	
10	0	0	0	0	498	
11	0	0	0	0	494	
12	0	0	0	0	492	
13	0	0	0	0	491	
14	0	0	0	0	490	
15	0	0	0	0	490	
0	0	0	0	0	486	
1	0	0	0	0	483	
2	0	0	0	0	478	
3	0	0	0	0	478	
4	0	0	0	0	476	
5	0	0	0	0	476	
6	0	0	0	0	478	
7	0	0	0	0	479	
8	0	0	0	0	485	
9	0	0	0	0	487	
10	0	0	0	0	490	
11	0	0	0	0	496	
12	0	0	0	0	497	
13	0	0	0	0	496	
14	0	0	0	0	494	
15	0	0	0	0	489	
0	0	0	0	0	476	
1	0	0	0	0	464	
2	0	0	0	0	457	
3	0	0	0	0	453	
4	0	0	0	0	449	
5	0	0	0	0	452	
6	0	0	0	0	457	
7	0	0	0	0	464	
8	0	0	0	0	472	
9	0	0	0	0	475	
10	0	0	0	0	480	
11	0	0	0	0	488	
12	0	0	0	0	488	
13	0	0	0	0	484	
14	0	0	0	0	480	
15	0	0	0	0	475	
0	0	0	0	0	470	
1	0	0	0	0	467	
2	0	0	0	0	462	
3	0	0	0	0	459	
4	0	0	0	0	457	
5	0	0	0	0	460	
6	0	0	0	0	464	
7	0	0	0	0	467	
8	0	0	0	0	468	
9	0	0	0	0	467	
10	0	0	0	0	471	
11	0	0	0	0	470	
12	0	0	0	0	466	
13	0	0	0	0	467	
14	0	0	0	0	467	
15	0	0	0	0	467	
0	0	0	0	0	464	
1	0	0	0	0	466	
2	0	0	0	0	469	
3	0	0	0	0	476	
4	0	0	0	0	480	
5	0	0	0	0	481	
6	0	0	0	0	481	
7	0	0	0	0	480	
8	0	0	0	0	486	
9	0	0	0	0	486	
10	0	0	0	0	483	
11	0	0	0	0	485	
12	0	0	0	0	486	
13	0	0	0	0	483	
14	0	0	0	0	481	
15	0	0	0	0	476	
0	0	0	0	0	472	
1	0	0	0	0	472	
2	0	0	0	0	469	
3	0	0	0	0	472	
4	0	0	0	0	479	
5	0	0	0	0	480	
6	0	0	0	0	484	
7	0	0	0	0	487	
8	0	0	0	0	494	
9	0	0	0	0	494	
10	0	0	0	0	497	
11	0	0	0	0	497	
12	0	0	0	0	496	
13	0	0	0	0	498	
14	0	0	0	0	503	
15	0	0	0	0	503	
0	0	0	0	0	506	
1	0	0	0	0	504	
2	0	0	0	0	501	
3	0	0	0	0	499	
4	0	0	0	0	496	
5	0	0	0	0	497	
6	0	0	0	0	498	
7	0	0	0	0	502	
8	0	0	0	0	507	
9	0	0	0	0	512	
10	0	0	0	0	515	
11	0	0	0	0	516	
12	0	0	0	0	519	
13	0	0	0	0	517	
14	0	0	0	0	519	
15	0	0	0	0	520	
0	0	0	0	0	521	
1	0	0	0	0	524	
2	0	0	0	0	521	
3	0	0	0	0	522	
4	0	0	0	0	524	
5	0	0	0	0	523	
6	0	0	0	0	525	
7	0	0	0	0	524	
8	0	0	0	0	520	
9	0	0	0	0	518	
10	0	0	0	0	515	
11	0	0	0	0	511	
12	0	0	0	0	509	
13	0	0	0	0	512	
14	0	0	0	0	515	
15	0	0	0	0	516	
0	0	0	0	0	518	
1	0	0	0	0	521	
2	0	0	0	0	525	
3	0	0	0	0	527	
4	0	0	0	0	528	
5	0	0	0	0	531	
6	0	0	0	0	526	
7	0	0	0	0	519	
8	0	0	0	0	518	
9	0	0	0	0	514	
10	0	0	0	0	510	
11	0	0	0	0	507	
12	0	0	0	0	506	
13	0	0	0	0	506	
14	0	0	0	0	506	
15	0	0	0	0	507	
0	0	0	0	0	513	
1	0	0	0	0	519	
2	0	0	0	0	527	
3	0	0	0	0	527	
4	0	0	0	0	533	
5	0	0	0	0	539	
6	0	0	0	0	537	
7	0	0	0	0	532	
8	0	0	0	0	526	
9	0	0	0	0	515	
10	0	0	0	0	505	
11	0	0	0	0	497	
12	0	0	0	0	499	
13	0	0	0	0	502	
14	0	0	0	0	504	
15	0	0	0	0	513	
0	0	0	0	0	519	
1	0	0	0	0	522	
2	0	0	0	0	526	
3	0	0	0	0	526	
4	0	0	0	0	529	
5	0	0	0	0	529	
6	0	0	0	0	528	
7	0	0	0	0	527	
8	0	0	0	0	524	
9	0	0	0	0	522	
10	0	0	0	0	524	
11	0	0	0	0	521	
12	0	0	0	0	520	
13	0	0	0	0	522	
14	0	0	0	0	524	
15	0	0	0	0	525	
0	0	0	0	0	518	
1	0	0	0	0	515	
2	0	0	0	0	515	
3	0	0	0	0	514	
4	0	0	0	0	515	
5	0	0	0	0	513	
6	0	0	0	0	514	
7	0	0	0	0	514	
8	0	0	0	0	514	
9	0	0	0	0	511	
10	0	0	0	0	510	
11	0	0	0	0	512	
12	0	0	0	0	511	
13	0	0	0	0	510	
14	0	0	0	0	515	
15	0	0	0	0	519	
0	0	0	0	0	522	
1	0	0	0	0	520	
2	0	0	0	0	516	
3	0	0	0	0	513	
4	0	0	0	0	505	
5	0	0	0	0	500	
6	0	0	0	0	499	
7	0	0	0	0	500	
8	0	0	0	0	499	
9	0	0	0	0	500	
10	0	0	0	0	506	
11	0	0	0	0	513	
12	0	0	0	0	519	
13	0	0	0	0	524	
14	0	0	0	0	529	
15	0	0	0	0	532	
0	0	0	0	0	531	
1	0	0	0	0	523	
2	0	0	0	0	514	
3	0	0	0	0	512	
4	0	0	0	0	505	
5	0	0	0	0	504	
6	0	0	0	0	502	
7	0	0	0	0	503	
8	0	0	0	0	506	
9	0	0	0	0	507	
10	0	0	0	0	507	
11	0	0	0	0	510	
12	0	0	0	0	508	
13	0	0	0	0	505	
14	0	0	0	0	505	
15	0	0	0	0	504	
0	0	0	0	0	501	
1	0	0	0	0	501	
2	0	0	0	0	504	
3	0	0	0	0	507	
4	0	0	0	0	508	
5	0	0	0	0	507	
6	0	0	0	0	505	
7	0	0	0	0	502	
8	0	0	0	0	501	
9	0	0	0	0	499	
10	0	0	0	0	499	
11	0	0	0	0	497	
12	0	0	0	0	497	
13	0	0	0	0	497	
14	0	0	0	0	498	
15	0	0	0	0	497	
0	0	0	0	0	500	
1	0	0	0	0	502	
2	0	0	0	0	501	
3	0	0	0	0	501	
4	0	0	0	0	499	
5	0	0	0	0	495	
6	0	0	0	0	496	
7	0	0	0	0	497	
8	0	0	0	0	497	
9	0	0	0	0	497	
10	0	0	0	0	499	
11	0	0	0	0	501	
12	0	0	0	0	497	
13	0	0	0	0	492	
14	0	0	0	0	482	
15	0	0	0	0	483	
0	0	0	0	0	483	
1	0	0	0	0	487	
2	0	0	0	0	499	
3	0	0	0	0	508	
4	0	0	0	0	515	
5	0	0	0	0	516	
6	0	0	0	0	513	
7	0	0	0	0	512	
8	0	0	0	0	511	
9	0	0	0	0	510	
10	0	0	0	0	508	
11	0	0	0	0	508	
12	0	0	0	0	501	
13	0	0	0	0	499	
14	0	0	0	0	497	
15	0	0	0	0	494	
0	0	0	0	0	493	
1	0	0	0	0	494	
2	0	0	0	0	494	
3	0	0	0	0	498	
4	0	0	0	0	498	
5	0	0	0	0	503	
6	0	0	0	0	504	
7	0	0	0	0	504	
8	0	0	0	0	504	
9	0	0	0	0	502	
10	0	0	0	0	503	
11	0	0	0	0	507	
12	0	0	0	0	507	
13	0	0	0	0	506	
14	0	0	0	0	505	
15	0	0	0	0	499	
0	0	0	0	0	496	
1	0	0	0	0	493	
2	0	0	0	0	485	
3	0	0	0	0	480	
4	0	0	0	0	478	
5	0	0	0	0	484	
6	0	0	0	0	493	
7	0	0	0	0	499	
8	0	0	0	0	499	
9	0	0	0	0	501	
10	0	0	0	0	503	
11	0	0	0	0	507	
12	0	0	0	0	509	
13	0	0	0	0	506	
14	0	0	0	0	504	
15	0	0	0	0	501	
0	0	0	0	0	498	
1	0	0	0	0	497	
2	0	0	0	0	497	
3	0	0	0	0	498	
4	0	0	0	0	501	
5	0	0	0	0	501	
6	0	0	0	0	506	
7	0	0	0	0	505	
8	0	0	0	0	505	
9	0	0	0	0	509	
10	0	0	0	0	511	
11	0	0	0	0	511	
12	0	0	0	0	512	
13	0	0	0	0	508	
14	0	0	0	0	505	
15	0	0	0	0	503	
0	0	0	0	0	501	
1	0	0	0	0	497	
2	0	0	0	0	495	
3	0	0	0	0	496	
4	0	0	0	0	495	
5	0	0	0	0	487	
6	0	0	0	0	486	
7	0	0	0	0	484	
8	0	0	0	0	483	
9	0	0	0	0	479	
10	0	0	0	0	481	
11	0	0	0	0	489	
12	0	0	0	0	495	
13	0	0	0	0	500	
14	0	0	0	0	505	
15	0	0	0	0	511	
0	0	0	0	0	513	
1	0	0	0	0	515	
2	0	0	0	0	515	
3	0	0	0	0	513	
4	0	0	0	0	514	
5	0	0	0	0	514	
6	0	0	0	0	511	
7	0	0	0	0	509	
8	0	0	0	0	509	
9	0	0	0	0	505	
10	0	0	0	0	504	
11	0	0	0	0	502	
12	0	0	0	0	504	
13	0	0	0	0	506	
14	0	0	0	0	504	
15	0	0	0	0	504	
0	0	0	0	0	508	
1	0	0	0	0	509	
2	0	0	0	0	509	
3	0	0	0	0	509	
4	0	0	0	0	504	
5	0	0	0	0	501	
6	0	0	0	0	496	
7	0	0	0	0	495	
8	0	0	0	0	498	
9	0	0	0	0	495	
10	0	0	0	0	493	
11	0	0	0	0	486	
12	0	0	0	0	479	
13	0	0	0	0	478	
14	0	0	0	0	481	
15	0	0	0	0	485	
0	0	0	0	0	493	
1	0	0	0	0	499	
2	0	0	0	0	503	
3	0	0	0	0	511	
4	0	0	0	0	517	
5	0	0	0	0	523	
6	0	0	0	0	521	
7	0	0	0	0	517	
8	0	0	0	0	510	
9	0	0	0	0	501	
10	0	0	0	0	491	
11	0	0	0	0	484	
12	0	0	0	0	478	
13	0	0	0	0	473	
14	0	0	0	0	474	
15	0	0	0	0	478	
0	0	0	0	0	481	
1	0	0	0	0	485	
2	0	0	0	0	488	
3	0	0	0	0	490	
4	0	0	0	0	487	
5	0	0	0	0	480	
6	0	0	0	0	472	
7	0	0	0	0	470	
8	0	0	0	0	470	
9	0	0	0	0	475	
10	0	0	0	0	482	
11	0	0	0	0	487	
12	0	0	0	0	491	
13	0	0	0	0	497	
14	0	0	0	0	504	
15	0	0	0	0	503	
0	0	0	0	0	499	
1	0	0	0	0	490	
2	0	0	0	0	481	
3	0	0	0	0	477	
4	0	0	0	0	474	
5	0	0	0	0	468	
6	0	0	0	0	464	
7	0	0	0	0	456	
8	0	0	0	0	455	
9	0	0	0	0	454	
10	0	0	0	0	456	
11	0	0	0	0	459	
12	0	0	0	0	460	
13	0	0	0	0	463	
14	0	0	0	0	471	
15	0	0	0	0	472	
0	0	0	0	0	471	
1	0	0	0	0	471	
2	0	0	0	0	472	
3	0	0	0	0	471	
4	0	0	0	0	469	
5	0	0	0	0	470	
6	0	0	0	0	472	
7	0	0	0	0	476	
8	0	0	0	0	480	
9	0	0	0	0	479	
10	0	0	0	0	476	
11	0	0	0	0	476	
12	0	0	0	0	478	
13	0	0	0	0	481	
14	0	0	0	0	485	
15	0	0	0	0	488	
0	0	0	0	0	494	
1	0	0	0	0	497	
2	0	0	0	0	500	
3	0	0	0	0	504	
4	0	0	0	0	508	
5	0	0	0	0	512	
6	0	0	0	0	516	
7	0	0	0	0	519	
8	0	0	0	0	516	
9	0	0	0	0	513	
10	0	0	0	0	509	
11	0	0	0	0	504	
12	0	0	0	0	498	
13	0	0	0	0	499	
14	0	0	0	0	500	
15	0	0	0	0	499	
0	0	0	0	0	504	
1	0	0	0	0	508	
2	0	0	0	0	510	
3	0	0	0	0	516	
4	0	0	0	0	520	
5	0	0	0	0	521	
6	0	0	0	0	529	
7	0	0	0	0	527	
8	0	0	0	0	526	
9	0	0	0	0	527	
10	0	0	0	0	527	
11	0	0	0	0	529	
12	0	0	0	0	528	
13	0	0	0	0	526	
14	0	0	0	0	527	
15	0	0	0	0	526	
0	0	0	0	0	528	
1	0	0	0	0	527	
2	0	0	0	0	530	
3	0	0	0	0	529	
4	0	0	0	0	527	
5	0	0	0	0	531	
6	0	0	0	0	529	
7	0	0	0	0	531	
8	0	0	0	0	528	
9	0	0	0	0	528	
10	0	0	0	0	529	
11	0	0	0	0	529	
12	0	0	0	0	527	
13	0	0	0	0	525	
14	0	0	0	0	524	
15	0	0	0	0	525	
0	0	0	0	0	525	
1	0	0	0	0	519	
2	0	0	0	0	515	
3	0	0	0	0	514	
4	0	0	0	0	511	
5	0	0	0	0	506	
6	0	0	0	0	505	
7	0	0	0	0	506	
8	0	0	0	0	507	
9	0	0	0	0	509	
10	0	0	0	0	516	
11	0	0	0	0	523	
12	0	0	0	0	533	
13	0	0	0	0	543	
14	0	0	0	0	544	
15	0	0	0	0	542	
0	0	0	0	0	540	
1	0	0	0	0	540	
2	0	0	0	0	541	
3	0	0	0	0	537	
4	0	0	0	0	535	
5	0	0	0	0	538	
6	0	0	0	0	539	
7	0	0	0	0	536	
8	0	0	0	0	533	
9	0	0	0	0	536	
10	0	0	0	0	539	
11	0	0	0	0	539	
12	0	0	0	0	542	
13	0	0	0	0	539	
14	0	0	0	0	538	
15	0	0	0	0	536	
0	0	0	0	0	536	
1	0	0	0	0	535	
2	0	0	0	0	533	
3	0	0	0	0	529	
4	0	0	0	0	524	
5	0	0	0	0	523	
6	0	0	0	0	516	
7	0	0	0	0	500	
8	0	0	0	0	484	
9	0	0	0	0	465	
10	0	0	0	0	444	
11	0	0	0	0	420	
12	0	0	0	0	398	
13	0	0	0	0	378	
14	0	0	0	0	355	
15	0	0	0	0	329	
0	0	0	0	0	303	
1	0	0	0	0	277	
2	0	0	0	0	254	
3	0	0	0	0	228	
4	0	0	0	0	202	
5	0	0	0	0	184	
6	0	0	0	0	175	
7	0	0	0	0	180	
8	0	0	0	0	193	
9	0	0	0	0	211	
10	0	0	0	0	233	
11	0	0	0	0	257	
12	0	0	0	0	284	
13	0	0	0	0	313	
14	0	0	0	0	343	
15	0	0	0	0	372	
0	0	0	0	0	402	
1	0	0	0	0	431	
2	0	0	0	0	457	
3	0	0	0	0	476	
4	0	0	0	0	487	
5	0	0	0	0	490	
6	0	0	0	0	494	
7	0	0	0	0	496	
8	0	0	0	0	503	
9	0	0	0	0	512	
10	0	0	0	0	523	
11	0	0	0	0	536	
12	0	0	0	0	552	
13	0	0	0	0	570	
14	0	0	0	0	587	
15	0	0	0	0	600	
0	0	0	0	0	616	
1	0	0	0	0	632	
2	0	0	0	0	642	
3	0	0	0	0	648	
4	0	0	0	0	652	
5	0	0	0	0	651	
6	0	0	0	0	651	
7	0	0	0	0	652	
8	0	0	0	0	651	
9	0	0	0	0	643	
10	0	0	0	0	637	
11	0	0	0	0	640	
12	0	0	0	0	648	
13	0	0	0	0	653	
14	0	0	0	0	653	
15	0	0	0	0	650	
0	0	0	0	0	651	
1	0	0	0	0	647	
2	0	0	0	0	643	
3	0	0	0	0	632	
4	0	0	0	0	616	
5	0	0	0	0	608	
6	0	0	0	0	598	
7	0	0	0	0	589	
8	0	0	0	0	580	
9	0	0	0	0	570	
10	0	0	0	0	566	
11	0	0	0	0	560	
12	0	0	0	0	561	
13	0	0	0	0	565	
14	0	0	0	0	569	
15	0	0	0	0	573	
0	0	0	0	0	571	
1	0	0	0	0	567	
2	0	0	0	0	562	
3	0	0	0	0	558	
4	0	0	0	0	553	
5	0	0	0	0	548	
6	0	0	0	0	544	
7	0	0	0	0	539	
8	0	0	0	0	536	
9	0	0	0	0	533	
10	0	0	0	0	529	
11	0	0	0	0	535	
12	0	0	0	0	537	
13	0	0	0	0	540	
14	0	0	0	0	543	
15	0	0	0	0	544	
0	0	0	0	0	544	
1	0	0	0	0	541	
2	0	0	0	0	538	
3	0	0	0	0	534	
4	0	0	0	0	527	
5	0	0	0	0	522	
6	0	0	0	0	519	
7	0	0	0	0	518	
8	0	0	0	0	516	
9	0	0	0	0	509	
10	0	0	0	0	513	
11	0	0	0	0	518	
12	0	0	0	0	519	
13	0	0	0	0	528	
14	0	0	0	0	532	
15	0	0	0	0	534	
0	0	0	0	0	534	
1	0	0	0	0	531	
2	0	0	0	0	529	
3	0	0	0	0	526	
4	0	0	0	0	526	
5	0	0	0	0	528	
6	0	0	0	0	526	
7	0	0	0	0	523	
8	0	0	0	0	520	
9	0	0	0	0	520	
10	0	0	0	0	520	
11	0	0	0	0	523	
12	0	0	0	0	525	
13	0	0	0	0	521	
14	0	0	0	0	518	
15	0	0	0	0	514	
0	0	0	0	0	512	
1	0	0	0	0	511	
2	0	0	0	0	508	
3	0	0	0	0	507	
4	0	0	0	0	504	
5	0	0	0	0	499	
6	0	0	0	0	498	
7	0	0	0	0	499	
8	0	0	0	0	502	
9	0	0	0	0	508	
10	0	0	0	0	512	
11	0	0	0	0	516	
12	0	0	0	0	517	
13	0	0	0	0	516	
14	0	0	0	0	512	
15	0	0	0	0	505	
0	0	0	0	0	498	
1	0	0	0	0	490	
2	0	0	0	0	488	
3	0	0	0	0	487	
4	0	0	0	0	486	
5	0	0	0	0	484	
6	0	0	0	0	489	
7	0	0	0	0	494	
8	0	0	0	0	496	
9	0	0	0	0	498	
10	0	0	0	0	503	
11	0	0	0	0	507	
12	0	0	0	0	513	
13	0	0	0	0	518	
14	0	0	0	0	518	
15	0	0	0	0	516	
0	0	0	0	0	515	
1	0	0	0	0	512	
2	0	0	0	0	508	
3	0	0	0	0	505	
4	0	0	0	0	504	
5	0	0	0	0	499	
6	0	0	0	0	502	
7	0	0	0	0	500	
8	0	0	0	0	500	
9	0	0	0	0	500	
10	0	0	0	0	500	
11	0	0	0	0	504	
12	0	0	0	0	504	
13	0	0	0	0	502	
14	0	0	0	0	499	
15	0	0	0	0	497	
0	0	0	0	0	497	
1	0	0	0	0	493	
2	0	0	0	0	488	
3	0	0	0	0	488	
4	0	0	0	0	489	
5	0	0	0	0	489	
6	0	0	0	0	489	
7	0	0	0	0	488	
8	0	0	0	0	488	
9	0	0	0	0	486	
10	0	0	0	0	484	
11	0	0	0	0	492	
12	0	0	0	0	491	
13	0	0	0	0	494	
14	0	0	0	0	494	
15	0	0	0	0	495	
0	0	0	0	0	491	
1	0	0	0	0	486	
2	0	0	0	0	488	
3	0	0	0	0	490	
4	0	0	0	0	495	
5	0	0	0	0	491	
6	0	0	0	0	488	
7	0	0	0	0	488	
8	0	0	0	0	489	
9	0	0	0	0	488	
10	0	0	0	0	485	
11	0	0	0	0	486	
12	0	0	0	0	485	
13	0	0	0	0	477	
14	0	0	0	0	475	
15	0	0	0	0	473	
0	0	0	0	0	472	
1	0	0	0	0	471	
2	0	0	0	0	468	
3	0	0	0	0	470	
4	0	0	0	0	468	
5	0	0	0	0	470	
6	0	0	0	0	470	
7	0	0	0	0	467	
8	0	0	0	0	466	
9	0	0	0	0	467	
10	0	0	0	0	469	
11	0	0	0	0	473	
12	0	0	0	0	476	
13	0	0	0	0	475	
14	0	0	0	0	474	
15	0	0	0	0	471	
0	0	0	0	0	470	
1	0	0	0	0	466	
2	0	0	0	0	461	
3	0	0	0	0	459	
4	0	0	0	0	455	
5	0	0	0	0	455	
6	0	0	0	0	460	
7	0	0	0	0	461	
8	0	0	0	0	463	
9	0	0	0	0	463	
10	0	0	0	0	463	
11	0	0	0	0	468	
12	0	0	0	0	472	
13	0	0	0	0	475	
14	0	0	0	0	479	
15	0	0	0	0	480	
0	0	0	0	0	477	
1	0	0	0	0	475	
2	0	0	0	0	475	
3	0	0	0	0	481	
4	0	0	0	0	486	
5	0	0	0	0	488	
6	0	0	0	0	491	
7	0	0	0	0	491	
8	0	0	0	0	494	
9	0	0	0	0	494	
10	0	0	0	0	494	
11	0	0	0	0	492	
12	0	0	0	0	487	
13	0	0	0	0	485	
14	0	0	0	0	485	
15	0	0	0	0	480	
0	0	0	0	0	483	
1	0	0	0	0	483	
2	0	0	0	0	481	
3	0	0	0	0	482	
4	0	0	0	0	483	
5	0	0	0	0	480	
6	0	0	0	0	476	
7	0	0	0	0	480	
8	0	0	0	0	487	
9	0	0	0	0	492	
10	0	0	0	0	497	
11	0	0	0	0	500	
12	0	0	0	0	503	
13	0	0	0	0	503	
14	0	0	0	0	505	
15	0	0	0	0	511	
0	0	0	0	0	508	
1	0	0	0	0	503	
2	0	0	0	0	504	
3	0	0	0	0	503	
4	0	0	0	0	503	
5	0	0	0	0	498	
6	0	0	0	0	499	
7	0	0	0	0	505	
8	0	0	0	0	505	
9	0	0	0	0	509	
10	0	0	0	0	509	
11	0	0	0	0	513	
12	0	0	0	0	519	
13	0	0	0	0	521	
14	0	0	0	0	520	
15	0	0	0	0	522	
0	0	0	0	0	519	
1	0	0	0	0	519	
2	0	0	0	0	516	
3	0	0	0	0	512	
4	0	0	0	0	510	
5	0	0	0	0	509	
6	0	0	0	0	510	
7	0	0	0	0	511	
8	0	0	0	0	512	
9	0	0	0	0	514	
10	0	0	0	0	519	
11	0	0	0	0	524	
12	0	0	0	0	527	
13	0	0	0	0	526	
14	0	0	0	0	525	
15	0	0	0	0	526	
0	0	0	0	0	525	
1	0	0	0	0	526	
2	0	0	0	0	530	
3	0	0	0	0	530	
4	0	0	0	0	528	
5	0	0	0	0	526	
6	0	0	0	0	527	
7	0	0	0	0	528	
8	0	0	0	0	527	
9	0	0	0	0	529	
10	0	0	0	0	528	
11	0	0	0	0	531	
12	0	0	0	0	529	
13	0	0	0	0	524	
14	0	0	0	0	527	
15	0	0	0	0	530	
0	0	0	0	0	530	
1	0	0	0	0	528	
2	0	0	0	0	525	
3	0	0	0	0	520	
4	0	0	0	0	519	
5	0	0	0	0	520	
6	0	0	0	0	520	
7	0	0	0	0	513	
8	0	0	0	0	516	
9	0	0	0	0	520	
10	0	0	0	0	522	
11	0	0	0	0	521	
12	0	0	0	0	520	
13	0	0	0	0	519	
14	0	0	0	0	521	
15	0	0	0	0	517	
0	0	0	0	0	518	
1	0	0	0	0	520	
2	0	0	0	0	525	
3	0	0	0	0	527	
4	0	0	0	0	527	
5	0	0	0	0	528	
6	0	0	0	0	531	
7	0	0	0	0	530	
8	0	0	0	0	531	
9	0	0	0	0	526	
10	0	0	0	0	527	
11	0	0	0	0	527	
12	0	0	0	0	521	
13	0	0	0	0	514	
14	0	0	0	0	509	
15	0	0	0	0	505	
0	0	0	0	0	506	
1	0	0	0	0	504	
2	0	0	0	0	508	
3	0	0	0	0	509	
4	0	0	0	0	513	
5	0	0	0	0	515	
6	0	0	0	0	518	
7	0	0	0	0	523	
8	0	0	0	0	526	
9	0	0	0	0	530	
10	0	0	0	0	531	
11	0	0	0	0	535	
12	0	0	0	0	532	
13	0	0	0	0	523	
14	0	0	0	0	516	
15	0	0	0	0	510	
0	0	0	0	0	504	
1	0	0	0	0	502	
2	0	0	0	0	502	
3	0	0	0	0	506	
4	0	0	0	0	509	
5	0	0	0	0	512	
6	0	0	0	0	519	
7	0	0	0	0	520	
8	0	0	0	0	526	
9	0	0	0	0	529	
10	0	0	0	0	530	
11	0	0	0	0	525	
12	0	0	0	0	524	
13	0	0	0	0	520	
14	0	0	0	0	515	
15	0	0	0	0	515	
0	0	0	0	0	513	
1	0	0	0	0	515	
2	0	0	0	0	515	
3	0	0	0	0	517	
4	0	0	0	0	518	
5	0	0	0	0	517	
6	0	0	0	0	512	
7	0	0	0	0	509	
8	0	0	0	0	506	
9	0	0	0	0	507	
10	0	0	0	0	507	
11	0	0	0	0	510	
12	0	0	0	0	512	
13	0	0	0	0	511	
14	0	0	0	0	512	
15	0	0	0	0	512	
0	0	0	0	0	510	
1	0	0	0	0	505	
2	0	0	0	0	504	
3	0	0	0	0	502	
4	0	0	0	0	501	
5	0	0	0	0	499	
6	0	0	0	0	503	
7	0	0	0	0	503	
8	0	0	0	0	500	
9	0	0	0	0	497	
10	0	0	0	0	491	
11	0	0	0	0	485	
12	0	0	0	0	481	
13	0	0	0	0	480	
14	0	0	0	0	484	
15	0	0	0	0	489	
0	0	0	0	0	495	
1	0	0	0	0	499	
2	0	0	0	0	501	
3	0	0	0	0	499	
4	0	0	0	0	503	
5	0	0	0	0	508	
6	0	0	0	0	508	
7	0	0	0	0	508	
8	0	0	0	0	507	
9	0	0	0	0	505	
10	0	0	0	0	506	
11	0	0	0	0	504	
12	0	0	0	0	504	
13	0	0	0	0	507	
14	0	0	0	0	509	
15	0	0	0	0	510	
0	0	0	0	0	510	
1	0	0	0	0	508	
2	0	0	0	0	510	
3	0	0	0	0	510	
4	0	0	0	0	507	
5	0	0	0	0	504	
6	0	0	0	0	497	
7	0	0	0	0	492	
8	0	0	0	0	489	
9	0	0	0	0	494	
10	0	0	0	0	496	
11	0	0	0	0	499	
12	0	0	0	0	505	
13	0	0	0	0	507	
14	0	0	0	0	507	
15	0	0	0	0	507	
0	0	0	0	0	506	
1	0	0	0	0	504	
2	0	0	0	0	500	
3	0	0	0	0	497	
4	0	0	0	0	495	
5	0	0	0	0	493	
6	0	0	0	0	491	
7	0	0	0	0	496	
8	0	0	0	0	500	
9	0	0	0	0	502	
10	0	0	0	0	501	
11	0	0	0	0	501	
12	0	0	0	0	503	
13	0	0	0	0	505	
14	0	0	0	0	507	
15	0	0	0	0	507	
0	0	0	0	0	505	
1	0	0	0	0	498	
2	0	0	0	0	498	
3	0	0	0	0	495	
4	0	0	0	0	495	
5	0	0	0	0	495	
6	0	0	0	0	491	
7	0	0	0	0	490	
8	0	0	0	0	493	
9	0	0	0	0	494	
10	0	0	0	0	496	
11	0	0	0	0	496	
12	0	0	0	0	499	
13	0	0	0	0	499	
14	0	0	0	0	498	
15	0	0	0	0	496	
0	0	0	0	0	498	
1	0	0	0	0	497	
2	0	0	0	0	501	
3	0	0	0	0	504	
4	0	0	0	0	508	
5	0	0	0	0	511	
6	0	0	0	0	511	
7	0	0	0	0	510	
8	0	0	0	0	509	
9	0	0	0	0	507	
10	0	0	0	0	504	
11	0	0	0	0	503	
12	0	0	0	0	505	
13	0	0	0	0	504	
14	0	0	0	0	496	
15	0	0	0	0	494	
0	0	0	0	0	496	
1	0	0	0	0	495	
2	0	0	0	0	492	
3	0	0	0	0	495	
4	0	0	0	0	495	
5	0	0	0	0	500	
6	0	0	0	0	509	
7	0	0	0	0	515	
8	0	0	0	0	518	
9	0	0	0	0	520	
10	0	0	0	0	514	
11	0	0	0	0	505	
12	0	0	0	0	505	
13	0	0	0	0	504	
14	0	0	0	0	502	
15	0	0	0	0	496	
0	0	0	0	0	496	
1	0	0	0	0	500	
2	0	0	0	0	504	
3	0	0	0	0	506	
4	0	0	0	0	511	
5	0	0	0	0	512	
6	0	0	0	0	512	
7	0	0	0	0	508	
8	0	0	0	0	506	
9	0	0	0	0	504	
10	0	0	0	0	505	
11	0	0	0	0	504	
12	0	0	0	0	497	
13	0	0	0	0	492	
14	0	0	0	0	496	
15	0	0	0	0	497	
0	0	0	0	0	498	
1	0	0	0	0	502	
2	0	0	0	0	506	
3	0	0	0	0	514	
4	0	0	0	0	519	
5	0	0	0	0	523	
6	0	0	0	0	518	
7	0	0	0	0	516	
8	0	0	0	0	519	
9	0	0	0	0	520	
10	0	0	0	0	522	
11	0	0	0	0	519	
12	0	0	0	0	515	
13	0	0	0	0	515	
14	0	0	0	0	517	
15	0	0	0	0	518	
0	0	0	0	0	516	
1	0	0	0	0	513	
2	0	0	0	0	510	
3	0	0	0	0	510	
4	0	0	0	0	507	
5	0	0	0	0	505	
6	0	0	0	0	502	
7	0	0	0	0	501	
8	0	0	0	0	502	
9	0	0	0	0	502	
10	0	0	0	0	502	
11	0	0	0	0	501	
12	0	0	0	0	502	
13	0	0	0	0	504	
14	0	0	0	0	509	
15	0	0	0	0	511	
0	0	0	0	0	509	
1	0	0	0	0	508	
2	0	0	0	0	502	
3	0	0	0	0	502	
4	0	0	0	0	503	
5	0	0	0	0	503	
6	0	0	0	0	503	
7	0	0	0	0	499	
8	0	0	0	0	498	
9	0	0	0	0	496	
10	0	0	0	0	497	
11	0	0	0	0	503	
12	0	0	0	0	505	
13	0	0	0	0	508	
14	0	0	0	0	512	
15	0	0	0	0	516	
0	0	0	0	0	520	
1	0	0	0	0	520	
2	0	0	0	0	520	
3	0	0	0	0	518	
4	0	0	0	0	512	
5	0	0	0	0	504	
6	0	0	0	0	500	
7	0	0	0	0	493	
8	0	0	0	0	486	
9	0	0	0	0	484	
10	0	0	0	0	486	
11	0	0	0	0	491	
12	0	0	0	0	499	
13	0	0	0	0	509	
14	0	0	0	0	515	
15	0	0	0	0	519	
0	0	0	0	0	518	
1	0	0	0	0	519	
2	0	0	0	0	517	
3	0	0	0	0	514	
4	0	0	0	0	510	
5	0	0	0	0	511	
6	0	0	0	0	508	
7	0	0	0	0	506	
8	0	0	0	0	504	
9	0	0	0	0	505	
10	0	0	0	0	504	
11	0	0	0	0	506	
12	0	0	0	0	507	
13	0	0	0	0	512	
14	0	0	0	0	515	
15	0	0	0	0	514	
0	0	0	0	0	511	
1	0	0	0	0	506	
2	0	0	0	0	502	
3	0	0	0	0	497	
4	0	0	0	0	493	
5	0	0	0	0	487	
6	0	0	0	0	484	
7	0	0	0	0	486	
8	0	0	0	0	490	
9	0	0	0	0	494	
10	0	0	0	0	496	
11	0	0	0	0	495	
12	0	0	0	0	494	
13	0	0	0	0	494	
14	0	0	0	0	495	
15	0	0	0	0	494	
0	0	0	0	0	488	
1	0	0	0	0	485	
2	0	0	0	0	481	
3	0	0	0	0	477	
4	0	0	0	0	479	
5	0	0	0	0	480	
6	0	0	0	0	479	
7	0	0	0	0	479	
8	0	0	0	0	479	
9	0	0	0	0	481	
10	0	0	0	0	481	
11	0	0	0	0	484	
12	0	0	0	0	487	
13	0	0	0	0	491	
14	0	0	0	0	484	
15	0	0	0	0	483	
0	0	0	0	0	483	
1	0	0	0	0	477	
2	0	0	0	0	470	
3	0	0	0	0	467	
4	0	0	0	0	465	
5	0	0	0	0	466	
6	0	0	0	0	466	
7	0	0	0	0	463	
8	0	0	0	0	464	
9	0	0	0	0	463	
10	0	0	0	0	467	
11	0	0	0	0	474	
12	0	0	0	0	476	
13	0	0	0	0	480	
14	0	0	0	0	483	
15	0	0	0	0	487	
0	0	0	0	0	490	
1	0	0	0	0	489	
2	0	0	0	0	484	
3	0	0	0	0	484	
4	0	0	0	0	480	
5	0	0	0	0	473	
6	0	0	0	0	472	
7	0	0	0	0	479	
8	0	0	0	0	482	
9	0	0	0	0	487	
10	0	0	0	0	496	
11	0	0	0	0	502	
12	0	0	0	0	507	
13	0	0	0	0	509	
14	0	0	0	0	516	
15	0	0	0	0	519	
0	0	0	0	0	520	
1	0	0	0	0	519	
2	0	0	0	0	515	
3	0	0	0	0	510	
4	0	0	0	0	505	
5	0	0	0	0	505	
6	0	0	0	0	508	
7	0	0	0	0	513	
8	0	0	0	0	513	
9	0	0	0	0	515	
10	0	0	0	0	515	
11	0	0	0	0	515	
12	0	0	0	0	516	
13	0	0	0	0	514	
14	0	0	0	0	515	
15	0	0	0	0	518	
0	0	0	0	0	525	
1	0	0	0	0	530	
2	0	0	0	0	532	
3	0	0	0	0	536	
4	0	0	0	0	536	
5	0	0	0	0	531	
6	0	0	0	0	528	
7	0	0	0	0	528	
8	0	0	0	0	529	
9	0	0	0	0	527	
10	0	0	0	0	524	
11	0	0	0	0	522	
12	0	0	0	0	521	
13	0	0	0	0	519	
14	0	0	0	0	523	
15	0	0	0	0	523	
0	0	0	0	0	524	
1	0	0	0	0	526	
2	0	0	0	0	526	
3	0	0	0	0	527	
4	0	0	0	0	531	
5	0	0	0	0	533	
6	0	0	0	0	531	
7	0	0	0	0	534	
8	0	0	0	0	534	
9	0	0	0	0	534	
10	0	0	0	0	536	
11	0	0	0	0	539	
12	0	0	0	0	540	
13	0	0	0	0	541	
14	0	0	0	0	542	
15	0	0	0	0	541	
0	0	0	0	0	539	
1	0	0	0	0	544	
2	0	0	0	0	545	
3	0	0	0	0	544	
4	0	0	0	0	541	
5	0	0	0	0	530	
6	0	0	0	0	524	
7	0	0	0	0	519	
8	0	0	0	0	512	
9	0	0	0	0	505	
10	0	0	0	0	505	
11	0	0	0	0	508	
12	0	0	0	0	508	
13	0	0	0	0	511	
14	0	0	0	0	514	
15	0	0	0	0	521	
0	0	0	0	0	531	
1	0	0	0	0	537	
2	0	0	0	0	543	
3	0	0	0	0	549	
4	0	0	0	0	549	
5	0	0	0	0	547	
6	0	0	0	0	544	
7	0	0	0	0	547	
8	0	0	0	0	552	
9	0	0	0	0	552	
10	0	0	0	0	553	
11	0	0	0	0	554	
12	0	0	0	0	552	
13	0	0	0	0	549	
14	0	0	0	0	545	
15	0	0	0	0	538	
0	0	0	0	0	523	
1	0	0	0	0	510	
2	0	0	0	0	494	
3	0	0	0	0	471	
4	0	0	0	0	449	
5	0	0	0	0	426	
6	0	0	0	0	402	
7	0	0	0	0	379	
8	0	0	0	0	354	
9	0	0	0	0	330	
10	0	0	0	0	303	
11	0	0	0	0	275	
12	0	0	0	0	248	
13	0	0	0	0	220	
14	0	0	0	0	190	
15	0	0	0	0	172	
0	0	0	0	0	164	
1	0	0	0	0	166	
2	0	0	0	0	178	
3	0	0	0	0	197	
4	0	0	0	0	218	
5	0	0	0	0	246	
6	0	0	0	0	272	
7	0	0	0	0	301	
8	0	0	0	0	328	
9	0	0	0	0	357	
10	0	0	0	0	387	
11	0	0	0	0	414	
12	0	0	0	0	437	
13	0	0	0	0	455	
14	0	0	0	0	464	
15	0	0	0	0	469	
0	0	0	0	0	476	
1	0	0	0	0	487	
2	0	0	0	0	505	
3	0	0	0	0	523	
4	0	0	0	0	544	
5	0	0	0	0	561	
6	0	0	0	0	580	
7	0	0	0	0	604	
8	0	0	0	0	621	
9	0	0	0	0	638	
10	0	0	0	0	654	
11	0	0	0	0	664	
12	0	0	0	0	670	
13	0	0	0	0	671	
14	0	0	0	0	670	
15	0	0	0	0	663	
0	0	0	0	0	659	
1	0	0	0	0	658	
2	0	0	0	0	657	
3	0	0	0	0	651	
4	0	0	0	0	648	
5	0	0	0	0	646	
6	0	0	0	0	647	
7	0	0	0	0	652	
8	0	0	0	0	653	
9	0	0	0	0	655	
10	0	0	0	0	654	
11	0	0	0	0	648	
12	0	0	0	0	642	
13	0	0	0	0	636	
14	0	0	0	0	625	
15	0	0	0	0	611	
0	0	0	0	0	605	
1	0	0	0	0	596	
2	0	0	0	0	587	
3	0	0	0	0	584	
4	0	0	0	0	579	
5	0	0	0	0	577	
6	0	0	0	0	577	
7	0	0	0	0	577	
8	0	0	0	0	577	
9	0	0	0	0	574	
10	0	0	0	0	570	
11	0	0	0	0	560	
12	0	0	0	0	550	
13	0	0	0	0	545	
14	0	0	0	0	539	
15	0	0	0	0	536	
0	0	0	0	0	535	
1	0	0	0	0	536	
2	0	0	0	0	540	
3	0	0	0	0	545	
4	0	0	0	0	551	
5	0	0	0	0	553	
6	0	0	0	0	561	
7	0	0	0	0	564	
8	0	0	0	0	562	
9	0	0	0	0	558	
10	0	0	0	0	554	
11	0	0	0	0	549	
12	0	0	0	0	540	
13	0	0	0	0	534	
14	0	0	0	0	525	
15	0	0	0	0	522	
0	0	0	0	0	523	
1	0	0	0	0	524	
2	0	0	0	0	523	
3	0	0	0	0	517	
4	0	0	0	0	515	
5	0	0	0	0	517	
6	0	0	0	0	523	
7	0	0	0	0	529	
8	0	0	0	0	531	
9	0	0	0	0	531	
10	0	0	0	0	528	
11	0	0	0	0	525	
12	0	0	0	0	521	
13	0	0	0	0	517	
14	0	0	0	0	515	
15	0	0	0	0	512	
0	0	0	0	0	513	
1	0	0	0	0	515	
2	0	0	0	0	518	
3	0	0	0	0	525	
4	0	0	0	0	529	
5	0	0	0	0	528	
6	0	0	0	0	522	
7	0	0	0	0	517	
8	0	0	0	0	512	
9	0	0	0	0	508	
10	0	0	0	0	506	
11	0	0	0	0	504	
12	0	0	0	0	503	
13	0	0	0	0	504	
14	0	0	0	0	505	
15	0	0	0	0	506	
0	0	0	0	0	506	
1	0	0	0	0	507	
2	0	0	0	0	508	
3	0	0	0	0	509	
4	0	0	0	0	508	
5	0	0	0	0	506	
6	0	0	0	0	510	
7	0	0	0	0	513	
8	0	0	0	0	517	
9	0	0	0	0	514	
10	0	0	0	0	510	
11	0	0	0	0	508	
12	0	0	0	0	507	
13	0	0	0	0	507	
14	0	0	0	0	509	
15	0	0	0	0	510	
0	0	0	0	0	505	
1	0	0	0	0	496	
2	0	0	0	0	491	
3	0	0	0	0	493	
4	0	0	0	0	496	
5	0	0	0	0	495	
6	0	0	0	0	492	
7	0	0	0	0	495	
8	0	0	0	0	498	
9	0	0	0	0	499	
10	0	0	0	0	499	
11	0	0	0	0	503	
12	0	0	0	0	505	
13	0	0	0	0	504	
14	0	0	0	0	502	
15	0	0	0	0	502	
0	0	0	0	0	499	
1	0	0	0	0	498	
2	0	0	0	0	494	
3	0	0	0	0	492	
4	0	0	0	0	493	
5	0	0	0	0	494	
6	0	0	0	0	497	
7	0	0	0	0	496	
8	0	0	0	0	493	
9	0	0	0	0	492	
10	0	0	0	0	492	
11	0	0	0	0	491	
12	0	0	0	0	492	
13	0	0	0	0	492	
14	0	0	0	0	494	
15	0	0	0	0	494	
0	0	0	0	0	487	
1	0	0	0	0	491	
2	0	0	0	0	495	
3	0	0	0	0	497	
4	0	0	0	0	497	
5	0	0	0	0	495	
6	0	0	0	0	495	
7	0	0	0	0	495	
8	0	0	0	0	496	
9	0	0	0	0	494	
10	0	0	0	0	490	
11	0	0	0	0	487	
12	0	0	0	0	485	
13	0	0	0	0	482	
14	0	0	0	0	476	
15	0	0	0	0	473	
0	0	0	0	0	472	
1	0	0	0	0	475	
2	0	0	0	0	480	
3	0	0	0	0	483	
4	0	0	0	0	489	
5	0	0	0	0	502	
6	0	0	0	0	507	
7	0	0	0	0	502	
8	0	0	0	0	495	
9	0	0	0	0	488	
10	0	0	0	0	480	
11	0	0	0	0	472	
12	0	0	0	0	469	
13	0	0	0	0	467	
14	0	0	0	0	465	
15	0	0	0	0	465	
0	0	0	0	0	467	
1	0	0	0	0	470	
2	0	0	0	0	472	
3	0	0	0	0	476	
4	0	0	0	0	476	
5	0	0	0	0	473	
6	0	0	0	0	473	
7	0	0	0	0	467	
8	0	0	0	0	465	
9	0	0	0	0	467	
10	0	0	0	0	465	
11	0	0	0	0	463	
12	0	0	0	0	464	
13	0	0	0	0	467	
14	0	0	0	0	468	
15	0	0	0	0	468	
0	0	0	0	0	468	
1	0	0	0	0	468	
2	0	0	0	0	467	
3	0	0	0	0	468	
4	0	0	0	0	470	
5	0	0	0	0	472	
6	0	0	0	0	472	
7	0	0	0	0	476	
8	0	0	0	0	477	
9	0	0	0	0	478	
10	0	0	0	0	477	
11	0	0	0	0	476	
12	0	0	0	0	477	
13	0	0	0	0	475	
14	0	0	0	0	473	
15	0	0	0	0	470	
0	0	0	0	0	468	
1	0	0	0	0	471	
2	0	0	0	0	476	
3	0	0	0	0	483	
4	0	0	0	0	487	
5	0	0	0	0	484	
6	0	0	0	0	481	
7	0	0	0	0	482	
8	0	0	0	0	482	
9	0	0	0	0	487	
10	0	0	0	0	496	
11	0	0	0	0	499	
12	0	0	0	0	499	
13	0	0	0	0	496	
14	0	0	0	0	493	
15	0	0	0	0	490	
0	0	0	0	0	486	
1	0	0	0	0	485	
2	0	0	0	0	487	
3	0	0	0	0	490	
4	0	0	0	0	491	
5	0	0	0	0	493	
6	0	0	0	0	497	
7	0	0	0	0	502	
8	0	0	0	0	505	
9	0	0	0	0	506	
10	0	0	0	0	505	
11	0	0	0	0	507	
12	0	0	0	0	504	
13	0	0	0	0	502	
14	0	0	0	0	503	
15	0	0	0	0	508	
0	0	0	0	0	513	
1	0	0	0	0	519	
2	0	0	0	0	527	
3	0	0	0	0	532	
4	0	0	0	0	536	
5	0	0	0	0	530	
6	0	0	0	0	523	
7	0	0	0	0	518	
8	0	0	0	0	511	
9	0	0	0	0	506	
10	0	0	0	0	506	
11	0	0	0	0	507	
12	0	0	0	0	513	
13	0	0	0	0	519	
14	0	0	0	0	523	
15	0	0	0	0	527	
0	0	0	0	0	533	
1	0	0	0	0	535	
2	0	0	0	0	527	
3	0	0	0	0	519	
4	0	0	0	0	512	
5	0	0	0	0	510	
6	0	0	0	0	514	
7	0	0	0	0	518	
8	0	0	0	0	525	
9	0	0	0	0	530	
10	0	0	0	0	539	
11	0	0	0	0	543	
12	0	0	0	0	541	
13	0	0	0	0	541	
14	0	0	0	0	539	
15	0	0	0	0	533	
0	0	0	0	0	525	
1	0	0	0	0	519	
2	0	0	0	0	511	
3	0	0	0	0	509	
4	0	0	0	0	508	
5	0	0	0	0	507	
6	0	0	0	0	507	
7	0	0	0	0	512	
8	0	0	0	0	517	
9	0	0	0	0	522	
10	0	0	0	0	531	
11	0	0	0	0	536	
12	0	0	0	0	541	
13	0	0	0	0	540	
14	0	0	0	0	542	
15	0	0	0	0	540	
0	0	0	0	0	536	
1	0	0	0	0	534	
2	0	0	0	0	533	
3	0	0	0	0	530	
4	0	0	0	0	526	
5	0	0	0	0	523	
6	0	0	0	0	524	
7	0	0	0	0	521	
8	0	0	0	0	519	
9	0	0	0	0	523	
10	0	0	0	0	523	
11	0	0	0	0	519	
12	0	0	0	0	517	
13	0	0	0	0	520	
14	0	0	0	0	524	
15	0	0	0	0	520	
0	0	0	0	0	520	
1	0	0	0	0	521	
2	0	0	0	0	523	
3	0	0	0	0	524	
4	0	0	0	0	526	
5	0	0	0	0	529	
6	0	0	0	0	532	
7	0	0	0	0	532	
8	0	0	0	0	533	
9	0	0	0	0	532	
10	0	0	0	0	534	
11	0	0	0	0	534	
12	0	0	0	0	532	
13	0	0	0	0	527	
14	0	0	0	0	524	
15	0	0	0	0	519	
0	0	0	0	0	511	
1	0	0	0	0	510	
2	0	0	0	0	512	
3	0	0	0	0	509	
4	0	0	0	0	507	
5	0	0	0	0	507	
6	0	0	0	0	509	
7	0	0	0	0	511	
8	0	0	0	0	513	
9	0	0	0	0	515	
10	0	0	0	0	515	
11	0	0	0	0	516	
12	0	0	0	0	514	
13	0	0	0	0	514	
14	0	0	0	0	514	
15	0	0	0	0	515	
0	0	0	0	0	515	
1	0	0	0	0	515	
2	0	0	0	0	515	
3	0	0	0	0	513	
4	0	0	0	0	515	
5	0	0	0	0	518	
6	0	0	0	0	524	
7	0	0	0	0	524	
8	0	0	0	0	526	
9	0	0	0	0	523	
10	0	0	0	0	512	
11	0	0	0	0	508	
12	0	0	0	0	506	
13	0	0	0	0	504	
14	0	0	0	0	507	
15	0	0	0	0	510	
0	0	0	0	0	512	
1	0	0	0	0	513	
2	0	0	0	0	513	
3	0	0	0	0	516	
4	0	0	0	0	516	
5	0	0	0	0	514	
6	0	0	0	0	508	
7	0	0	0	0	503	
