timestamp,valores
0.0,-48.387096774193544
1.0000444464198408,-12.903225806451612
2.0000888928396816,-6.451612903225806
3.0001333392595226,-3.225806451612903
4.000177785679363,-6.451612903225806
5.000222232099204,-3.225806451612903
6.000266678519045,9.677419354838708
7.000311124938886,16.129032258064516
8.000355571358726,16.129032258064516
9.000400017778567,16.129032258064516
10.000444464198408,6.451612903225806
11.000488910618248,0.0
12.00053335703809,-3.225806451612903
13.000577803457931,-6.451612903225806
14.000622249877772,-6.451612903225806
15.000666696297612,3.225806451612903
16.000711142717453,3.225806451612903
17.000755589137295,19.354838709677416
18.000800035557134,16.129032258064516
19.000844481976976,19.354838709677416
20.000888928396815,16.129032258064516
21.000933374816658,12.903225806451612
22.000977821236496,0.0
23.00102226765634,0.0
24.00106671407618,0.0
25.00111116049602,0.0
26.001155606915862,-6.451612903225806
27.0012000533357,-3.225806451612903
28.001244499755543,-9.677419354838708
29.001288946175382,-3.225806451612903
30.001333392595225,-12.903225806451612
31.001377839015063,-16.129032258064516
32.001422285434906,-9.677419354838708
33.00146673185475,3.225806451612903
34.00151117827459,6.451612903225806
35.001555624694426,3.225806451612903
36.00160007111427,3.225806451612903
37.00164451753411,9.677419354838708
38.00168896395395,9.677419354838708
39.00173341037379,6.451612903225806
40.00177785679363,3.225806451612903
41.00182230321347,3.225806451612903
42.001866749633315,-6.451612903225806
43.00191119605316,-6.451612903225806
44.00195564247299,9.677419354838708
45.002000088892835,3.225806451612903
46.00204453531268,0.0
47.00208898173252,-6.451612903225806
48.00213342815236,6.451612903225806
49.0021778745722,67.74193548387096
50.00222232099204,77.41935483870967
51.00226676741188,70.96774193548387
52.002311213831725,-3.225806451612903
53.00235566025156,-74.19354838709677
54.0024001066714,-83.87096774193549
55.002444553091244,-112.9032258064516
56.00248899951109,-87.09677419354838
57.00253344593093,-41.935483870967744
58.002577892350764,-16.129032258064516
59.00262233877061,3.225806451612903
60.00266678519045,22.58064516129032
61.00271123161029,29.03225806451613
62.00275567803013,16.129032258064516
63.00280012444997,12.903225806451612
64.00284457086981,25.806451612903224
65.00288901728965,16.129032258064516
66.0029334637095,16.129032258064516
67.00297791012933,16.129032258064516
68.00302235654918,12.903225806451612
69.00306680296902,6.451612903225806
70.00311124938885,3.225806451612903
71.0031556958087,3.225806451612903
72.00320014222854,3.225806451612903
73.00324458864839,6.451612903225806
74.00328903506822,9.677419354838708
75.00333348148806,6.451612903225806
76.0033779279079,3.225806451612903
77.00342237432774,9.677419354838708
78.00346682074758,-9.677419354838708
79.00351126716743,-3.225806451612903
80.00355571358726,-9.677419354838708
81.00360016000711,-12.903225806451612
82.00364460642695,-6.451612903225806
83.00368905284678,0.0
84.00373349926663,-6.451612903225806
85.00377794568647,3.225806451612903
86.00382239210631,3.225806451612903
87.00386683852615,3.225806451612903
88.00391128494599,12.903225806451612
89.00395573136583,3.225806451612903
90.00400017778567,3.225806451612903
91.00404462420552,6.451612903225806
92.00408907062535,3.225806451612903
93.00413351704519,3.225806451612903
94.00417796346504,-3.225806451612903
95.00422240988487,0.0
96.00426685630472,0.0
97.00431130272456,-9.677419354838708
98.0043557491444,-6.451612903225806
99.00440019556424,-3.225806451612903
100.00444464198408,-6.451612903225806
101.00448908840391,-6.451612903225806
102.00453353482376,-9.677419354838708
103.0045779812436,-3.225806451612903
104.00462242766345,3.225806451612903
105.00466687408328,-3.225806451612903
106.00471132050312,9.677419354838708
107.00475576692297,16.129032258064516
108.0048002133428,12.903225806451612
109.00484465976265,9.677419354838708
110.00488910618249,0.0
111.00493355260232,0.0
112.00497799902217,3.225806451612903
113.00502244544201,12.903225806451612
114.00506689186186,38.70967741935483
115.0051113382817,32.25806451612903
116.00515578470153,19.354838709677416
117.00520023112138,-12.903225806451612
118.00524467754121,-22.58064516129032
119.00528912396105,-16.129032258064516
120.0053335703809,-29.03225806451613
121.00537801680073,-38.70967741935483
122.00542246322058,-35.483870967741936
123.00546690964042,-29.03225806451613
124.00551135606025,-6.451612903225806
125.0055558024801,-6.451612903225806
126.00560024889994,0.0
127.00564469531979,0.0
128.00568914173962,9.677419354838708
129.00573358815947,12.903225806451612
130.0057780345793,12.903225806451612
131.00582248099914,12.903225806451612
132.005866927419,12.903225806451612
133.0059113738388,16.129032258064516
134.00595582025866,16.129032258064516
135.0060002666785,12.903225806451612
136.00604471309836,12.903225806451612
137.00608915951818,0.0
138.00613360593803,6.451612903225806
139.00617805235788,3.225806451612903
140.0062224987777,0.0
141.00626694519755,-3.225806451612903
142.0063113916174,-9.677419354838708
143.00635583803722,-6.451612903225806
144.00640028445707,3.225806451612903
145.00644473087692,-9.677419354838708
146.00648917729677,0.0
147.0065336237166,-9.677419354838708
148.00657807013644,-9.677419354838708
149.0066225165563,-6.451612903225806
150.0066669629761,-16.129032258064516
151.00671140939596,-6.451612903225806
152.0067558558158,-6.451612903225806
153.00680030223563,16.129032258064516
154.00684474865548,25.806451612903224
155.00688919507533,19.354838709677416
156.00693364149515,22.58064516129032
157.006978087915,9.677419354838708
158.00702253433485,-9.677419354838708
159.0070669807547,-19.354838709677416
160.00711142717452,-22.58064516129032
161.00715587359437,-16.129032258064516
162.00720032001422,-9.677419354838708
163.00724476643404,-6.451612903225806
164.0072892128539,0.0
165.00733365927374,-3.225806451612903
166.00737810569356,3.225806451612903
167.0074225521134,6.451612903225806
168.00746699853326,6.451612903225806
169.0075114449531,6.451612903225806
170.00755589137293,0.0
171.00760033779278,3.225806451612903
172.00764478421263,-6.451612903225806
173.00768923063245,-12.903225806451612
174.0077336770523,3.225806451612903
175.00777812347215,-3.225806451612903
176.00782256989197,6.451612903225806
177.00786701631182,12.903225806451612
178.00791146273167,16.129032258064516
179.0079559091515,6.451612903225806
180.00800035557134,0.0
181.0080448019912,3.225806451612903
182.00808924841104,3.225806451612903
183.00813369483086,6.451612903225806
184.0081781412507,16.129032258064516
185.00822258767056,9.677419354838708
186.00826703409038,12.903225806451612
187.00831148051023,0.0
188.00835592693008,-3.225806451612903
189.0084003733499,-6.451612903225806
190.00844481976975,-9.677419354838708
191.0084892661896,0.0
192.00853371260945,0.0
193.00857815902927,0.0
194.00862260544912,-6.451612903225806
195.00866705186897,-6.451612903225806
196.0087114982888,0.0
197.00875594470864,-9.677419354838708
198.0088003911285,-3.225806451612903
199.0088448375483,0.0
200.00888928396816,-6.451612903225806
201.008933730388,0.0
202.00897817680783,-9.677419354838708
203.00902262322768,-16.129032258064516
204.00906706964753,-16.129032258064516
205.00911151606738,-6.451612903225806
206.0091559624872,3.225806451612903
207.00920040890705,9.677419354838708
208.0092448553269,16.129032258064516
209.00928930174672,22.58064516129032
210.00933374816657,16.129032258064516
211.00937819458642,9.677419354838708
212.00942264100624,0.0
213.0094670874261,0.0
214.00951153384594,3.225806451612903
215.00955598026576,9.677419354838708
216.0096004266856,3.225806451612903
217.00964487310546,-3.225806451612903
218.0096893195253,-3.225806451612903
219.00973376594513,3.225806451612903
220.00977821236498,3.225806451612903
221.00982265878483,-9.677419354838708
222.00986710520465,-6.451612903225806
223.0099115516245,12.903225806451612
224.00995599804435,16.129032258064516
225.01000044446417,6.451612903225806
226.01004489088402,3.225806451612903
227.01008933730387,-22.58064516129032
228.01013378372372,-16.129032258064516
229.01017823014354,29.03225806451613
230.0102226765634,54.83870967741935
231.01026712298324,64.51612903225806
232.01031156940306,38.70967741935483
233.0103560158229,-19.354838709677416
234.01040046224276,-58.06451612903226
235.01044490866258,-83.87096774193549
236.01048935508243,-90.32258064516128
237.01053380150228,-61.29032258064516
238.0105782479221,-38.70967741935483
239.01062269434195,-16.129032258064516
240.0106671407618,-6.451612903225806
241.01071158718165,19.354838709677416
242.01075603360147,29.03225806451613
243.01080048002132,25.806451612903224
244.01084492644117,22.58064516129032
245.010889372861,16.129032258064516
246.01093381928084,16.129032258064516
247.0109782657007,9.677419354838708
248.0110227121205,12.903225806451612
249.01106715854036,9.677419354838708
250.0111116049602,6.451612903225806
251.01115605138006,12.903225806451612
252.01120049779988,6.451612903225806
253.01124494421973,12.903225806451612
254.01128939063958,3.225806451612903
255.0113338370594,-3.225806451612903
256.01137828347925,3.225806451612903
257.0114227298991,3.225806451612903
258.01146717631894,0.0
259.0115116227388,-9.677419354838708
260.0115560691586,-9.677419354838708
261.01160051557844,-9.677419354838708
262.0116449619983,-6.451612903225806
263.01168940841814,-6.451612903225806
264.011733854838,-3.225806451612903
265.01177830125783,0.0
266.0118227476776,0.0
267.0118671940975,3.225806451612903
268.0119116405173,3.225806451612903
269.0119560869372,16.129032258064516
270.012000533357,3.225806451612903
271.0120449797769,0.0
272.0120894261967,3.225806451612903
273.0121338726165,16.129032258064516
274.01217831903637,22.58064516129032
275.0122227654562,19.354838709677416
276.01226721187606,3.225806451612903
277.0123116582959,-19.354838709677416
278.01235610471576,-29.03225806451613
279.01240055113556,-25.806451612903224
280.0124449975554,-32.25806451612903
281.01248944397526,-16.129032258064516
282.0125338903951,3.225806451612903
283.01257833681495,0.0
284.0126227832348,16.129032258064516
285.01266722965465,9.677419354838708
286.01271167607445,12.903225806451612
287.0127561224943,0.0
288.01280056891414,-3.225806451612903
289.012845015334,0.0
290.01288946175384,-3.225806451612903
291.0129339081737,0.0
292.01297835459354,6.451612903225806
293.01302280101334,12.903225806451612
294.0130672474332,12.903225806451612
295.01311169385303,-6.451612903225806
296.0131561402729,-6.451612903225806
297.01320058669273,-6.451612903225806
298.0132450331126,-9.677419354838708
299.0132894795324,3.225806451612903
300.0133339259522,-3.225806451612903
301.0133783723721,-6.451612903225806
302.0134228187919,-3.225806451612903
303.0134672652118,0.0
304.0135117116316,0.0
305.0135561580515,0.0
306.01360060447126,6.451612903225806
307.0136450508911,9.677419354838708
308.01368949731096,12.903225806451612
309.0137339437308,12.903225806451612
310.01377839015066,6.451612903225806
311.0138228365705,0.0
312.0138672829903,-9.677419354838708
313.01391172941015,-12.903225806451612
314.01395617583,-6.451612903225806
315.01400062224985,-6.451612903225806
316.0140450686697,6.451612903225806
317.01408951508955,0.0
318.0141339615094,0.0
319.0141784079292,3.225806451612903
320.01422285434904,-6.451612903225806
321.0142673007689,0.0
322.01431174718874,6.451612903225806
323.0143561936086,0.0
324.01440064002844,0.0
325.01444508644823,3.225806451612903
326.0144895328681,-3.225806451612903
327.01453397928793,-6.451612903225806
328.0145784257078,-3.225806451612903
329.01462287212763,3.225806451612903
330.0146673185475,0.0
331.01471176496733,0.0
332.0147562113871,-9.677419354838708
333.014800657807,-3.225806451612903
334.0148451042268,-6.451612903225806
335.01488955064667,-6.451612903225806
336.0149339970665,0.0
337.01497844348637,3.225806451612903
338.0150228899062,0.0
339.015067336326,3.225806451612903
340.01511178274586,0.0
341.0151562291657,-6.451612903225806
342.01520067558556,0.0
343.0152451220054,12.903225806451612
344.01528956842526,22.58064516129032
345.01533401484505,12.903225806451612
346.0153784612649,6.451612903225806
347.01542290768475,-6.451612903225806
348.0154673541046,-9.677419354838708
349.01551180052445,9.677419354838708
350.0155562469443,9.677419354838708
351.01560069336415,-6.451612903225806
352.01564513978394,-16.129032258064516
353.0156895862038,-22.58064516129032
354.01573403262364,-35.483870967741936
355.0157784790435,-29.03225806451613
356.01582292546334,-12.903225806451612
357.0158673718832,-6.451612903225806
358.015911818303,-9.677419354838708
359.01595626472283,9.677419354838708
360.0160007111427,6.451612903225806
361.01604515756253,6.451612903225806
362.0160896039824,3.225806451612903
363.01613405040223,3.225806451612903
364.0161784968221,12.903225806451612
365.01622294324187,3.225806451612903
366.0162673896617,0.0
367.01631183608157,0.0
368.0163562825014,0.0
369.01640072892127,6.451612903225806
370.0164451753411,9.677419354838708
371.0164896217609,3.225806451612903
372.01653406818076,3.225806451612903
373.0165785146006,6.451612903225806
374.01662296102046,9.677419354838708
375.0166674074403,3.225806451612903
376.01671185386016,9.677419354838708
377.01675630028,6.451612903225806
378.0168007466998,0.0
379.01684519311965,-6.451612903225806
380.0168896395395,-6.451612903225806
381.01693408595935,-6.451612903225806
382.0169785323792,3.225806451612903
383.01702297879905,6.451612903225806
384.0170674252189,6.451612903225806
385.0171118716387,9.677419354838708
386.01715631805854,35.483870967741936
387.0172007644784,64.51612903225806
388.01724521089824,77.41935483870967
389.0172896573181,58.06451612903226
390.01733410373794,-3.225806451612903
391.01737855015773,-77.41935483870967
392.0174229965776,-58.06451612903226
393.01746744299743,-67.74193548387096
394.0175118894173,-64.51612903225806
395.0175563358371,-45.16129032258064
396.017600782257,-51.61290322580645
397.0176452286768,-41.935483870967744
398.0176896750966,-22.58064516129032
399.01773412151647,-6.451612903225806
400.0177785679363,3.225806451612903
401.01782301435617,22.58064516129032
402.017867460776,25.806451612903224
403.01791190719587,29.03225806451613
404.01795635361566,25.806451612903224
405.0180008000355,22.58064516129032
406.01804524645536,19.354838709677416
407.0180896928752,12.903225806451612
408.01813413929506,6.451612903225806
409.0181785857149,-3.225806451612903
410.01822303213476,-6.451612903225806
411.01826747855455,0.0
412.0183119249744,0.0
413.01835637139425,9.677419354838708
414.0184008178141,19.354838709677416
415.01844526423395,9.677419354838708
416.0184897106538,12.903225806451612
417.0185341570736,9.677419354838708
418.01857860349344,12.903225806451612
419.0186230499133,16.129032258064516
420.01866749633314,9.677419354838708
421.018711942753,9.677419354838708
422.01875638917284,3.225806451612903
423.0188008355927,-9.677419354838708
424.0188452820125,-3.225806451612903
425.0188897284323,-9.677419354838708
426.0189341748522,-12.903225806451612
427.018978621272,-6.451612903225806
428.0190230676919,-9.677419354838708
429.0190675141117,-9.677419354838708
430.0191119605315,-9.677419354838708
431.01915640695137,-12.903225806451612
432.0192008533712,-6.451612903225806
433.01924529979107,-6.451612903225806
434.0192897462109,-12.903225806451612
435.01933419263077,-9.677419354838708
436.0193786390506,0.0
437.0194230854704,3.225806451612903
438.01946753189026,12.903225806451612
439.0195119783101,12.903225806451612
440.01955642472996,3.225806451612903
441.0196008711498,0.0
442.01964531756965,-9.677419354838708
443.0196897639895,-9.677419354838708
444.0197342104093,0.0
445.01977865682915,3.225806451612903
446.019823103249,3.225806451612903
447.01986754966885,12.903225806451612
448.0199119960887,9.677419354838708
449.01995644250854,9.677419354838708
450.02000088892834,3.225806451612903
451.0200453353482,12.903225806451612
452.02008978176804,0.0
453.0201342281879,0.0
454.02017867460773,-3.225806451612903
455.0202231210276,-6.451612903225806
456.02026756744743,-6.451612903225806
457.0203120138672,-3.225806451612903
458.0203564602871,3.225806451612903
459.0204009067069,9.677419354838708
460.0204453531268,-6.451612903225806
461.0204897995466,-9.677419354838708
462.0205342459665,-6.451612903225806
463.02057869238627,-3.225806451612903
464.0206231388061,3.225806451612903
465.02066758522597,3.225806451612903
466.0207120316458,0.0
467.02075647806566,-3.225806451612903
468.0208009244855,-3.225806451612903
469.02084537090536,16.129032258064516
470.02088981732516,9.677419354838708
471.020934263745,3.225806451612903
472.02097871016485,-9.677419354838708
473.0210231565847,-9.677419354838708
474.02106760300455,12.903225806451612
475.0211120494244,0.0
476.0211564958442,-9.677419354838708
477.02120094226404,-22.58064516129032
478.0212453886839,-19.354838709677416
479.02128983510374,-16.129032258064516
480.0213342815236,-19.354838709677416
481.02137872794344,-16.129032258064516
482.0214231743633,-6.451612903225806
483.0214676207831,6.451612903225806
484.02151206720293,3.225806451612903
485.0215565136228,3.225806451612903
486.02160096004263,3.225806451612903
487.0216454064625,6.451612903225806
488.02168985288233,3.225806451612903
489.0217342993022,12.903225806451612
490.021778745722,0.0
491.0218231921418,12.903225806451612
492.0218676385617,9.677419354838708
493.0219120849815,16.129032258064516
494.0219565314014,22.58064516129032
495.0220009778212,16.129032258064516
496.022045424241,3.225806451612903
497.02208987066086,3.225806451612903
498.0221343170807,-6.451612903225806
499.02217876350056,3.225806451612903
500.0222232099204,-9.677419354838708
501.02226765634026,-6.451612903225806
502.0223121027601,-9.677419354838708
503.0223565491799,-9.677419354838708
504.02240099559975,-12.903225806451612
505.0224454420196,-12.903225806451612
506.02248988843945,-6.451612903225806
507.0225343348593,6.451612903225806
508.02257878127915,0.0
509.02262322769894,0.0
510.0226676741188,3.225806451612903
511.02271212053864,6.451612903225806
512.0227565669585,3.225806451612903
513.0228010133783,9.677419354838708
514.0228454597982,6.451612903225806
515.022889906218,3.225806451612903
516.0229343526379,12.903225806451612
517.0229787990577,6.451612903225806
518.0230232454776,9.677419354838708
519.0230676918974,9.677419354838708
520.0231121383172,-3.225806451612903
521.0231565847371,-6.451612903225806
522.0232010311569,0.0
523.0232454775768,-3.225806451612903
524.0232899239966,3.225806451612903
525.0233343704165,-6.451612903225806
526.0233788168363,-3.225806451612903
527.0234232632561,-6.451612903225806
528.023467709676,19.354838709677416
529.0235121560958,54.83870967741935
530.0235566025157,58.06451612903226
531.0236010489355,45.16129032258064
532.0236454953553,-9.677419354838708
533.0236899417752,-51.61290322580645
534.023734388195,-67.74193548387096
535.0237788346149,-80.64516129032258
536.0238232810347,-64.51612903225806
537.0238677274546,-6.451612903225806
538.0239121738744,6.451612903225806
539.0239566202941,16.129032258064516
540.024001066714,12.903225806451612
541.0240455131338,9.677419354838708
542.0240899595537,0.0
543.0241344059735,-12.903225806451612
544.0241788523934,-12.903225806451612
545.0242232988132,-12.903225806451612
546.024267745233,-6.451612903225806
547.0243121916529,0.0
548.0243566380727,9.677419354838708
549.0244010844926,16.129032258064516
550.0244455309124,16.129032258064516
551.0244899773323,19.354838709677416
552.0245344237521,25.806451612903224
553.0245788701719,38.70967741935483
554.0246233165918,38.70967741935483
555.0246677630116,22.58064516129032
556.0247122094315,6.451612903225806
557.0247566558513,-6.451612903225806
558.0248011022711,-41.935483870967744
559.024845548691,-25.806451612903224
560.0248899951108,-3.225806451612903
561.0249344415307,-9.677419354838708
562.0249788879505,-25.806451612903224
563.0250233343704,-16.129032258064516
564.0250677807902,-19.354838709677416
565.02511222721,-19.354838709677416
566.0251566736299,-9.677419354838708
567.0252011200497,-6.451612903225806
568.0252455664696,12.903225806451612
569.0252900128894,19.354838709677416
570.0253344593093,29.03225806451613
571.0253789057291,35.483870967741936
572.0254233521489,16.129032258064516
573.0254677985688,6.451612903225806
574.0255122449886,6.451612903225806
575.0255566914085,-12.903225806451612
576.0256011378283,3.225806451612903
577.0256455842482,3.225806451612903
578.025690030668,6.451612903225806
579.0257344770878,29.03225806451613
580.0257789235077,25.806451612903224
581.0258233699275,16.129032258064516
582.0258678163474,0.0
583.0259122627672,-25.806451612903224
584.0259567091871,-19.354838709677416
585.0260011556069,-22.58064516129032
586.0260456020267,-16.129032258064516
587.0260900484466,-25.806451612903224
588.0261344948664,-12.903225806451612
589.0261789412863,-6.451612903225806
590.0262233877061,-16.129032258064516
591.0262678341259,-6.451612903225806
592.0263122805458,-3.225806451612903
593.0263567269656,-9.677419354838708
594.0264011733855,6.451612903225806
595.0264456198053,9.677419354838708
596.0264900662252,16.129032258064516
597.026534512645,12.903225806451612
598.0265789590648,3.225806451612903
599.0266234054847,3.225806451612903
600.0266678519044,-6.451612903225806
601.0267122983244,0.0
602.0267567447441,0.0
603.026801191164,0.0
604.0268456375838,3.225806451612903
605.0268900840036,-3.225806451612903
606.0269345304235,3.225806451612903
607.0269789768433,9.677419354838708
608.0270234232632,6.451612903225806
609.027067869683,12.903225806451612
610.027112316103,-3.225806451612903
611.0271567625227,-6.451612903225806
612.0272012089425,-6.451612903225806
613.0272456553624,-9.677419354838708
614.0272901017822,-6.451612903225806
615.0273345482021,-9.677419354838708
616.0273789946219,0.0
617.0274234410418,-3.225806451612903
618.0274678874616,-3.225806451612903
619.0275123338814,3.225806451612903
620.0275567803013,3.225806451612903
621.0276012267211,0.0
622.027645673141,-3.225806451612903
623.0276901195608,-12.903225806451612
624.0277345659806,3.225806451612903
625.0277790124005,9.677419354838708
626.0278234588203,12.903225806451612
627.0278679052402,12.903225806451612
628.02791235166,0.0
629.0279567980799,-3.225806451612903
630.0280012444997,-9.677419354838708
631.0280456909195,-19.354838709677416
632.0280901373394,-12.903225806451612
633.0281345837592,3.225806451612903
634.0281790301791,0.0
635.0282234765989,12.903225806451612
636.0282679230188,19.354838709677416
637.0283123694386,19.354838709677416
638.0283568158584,16.129032258064516
639.0284012622783,3.225806451612903
640.0284457086981,-3.225806451612903
641.028490155118,-3.225806451612903
642.0285346015378,-12.903225806451612
643.0285790479577,-19.354838709677416
644.0286234943775,-9.677419354838708
645.0286679407973,-3.225806451612903
646.0287123872172,-3.225806451612903
647.028756833637,0.0
648.0288012800569,0.0
649.0288457264767,3.225806451612903
650.0288901728965,-3.225806451612903
651.0289346193164,3.225806451612903
652.0289790657362,70.96774193548387
653.0290235121561,70.96774193548387
654.0290679585759,80.64516129032258
655.0291124049958,16.129032258064516
656.0291568514156,-58.06451612903226
657.0292012978354,-99.99999999999999
658.0292457442553,-103.2258064516129
659.029290190675,-99.99999999999999
660.029334637095,-51.61290322580645
661.0293790835148,-35.483870967741936
662.0294235299347,-9.677419354838708
663.0294679763545,25.806451612903224
664.0295124227742,38.70967741935483
665.0295568691942,32.25806451612903
666.029601315614,35.483870967741936
667.0296457620339,19.354838709677416
668.0296902084536,12.903225806451612
669.0297346548736,16.129032258064516
670.0297791012933,3.225806451612903
671.0298235477131,9.677419354838708
672.029867994133,0.0
673.0299124405528,3.225806451612903
674.0299568869727,9.677419354838708
675.0300013333925,6.451612903225806
676.0300457798124,6.451612903225806
677.0300902262322,12.903225806451612
678.030134672652,0.0
679.0301791190719,0.0
680.0302235654917,0.0
681.0302680119116,-3.225806451612903
682.0303124583314,6.451612903225806
683.0303569047512,3.225806451612903
684.0304013511711,0.0
685.0304457975909,-9.677419354838708
686.0304902440108,0.0
687.0305346904306,0.0
688.0305791368505,0.0
689.0306235832703,-3.225806451612903
690.0306680296901,0.0
691.03071247611,0.0
692.0307569225298,3.225806451612903
693.0308013689497,3.225806451612903
694.0308458153695,-3.225806451612903
695.0308902617894,-3.225806451612903
696.0309347082092,-6.451612903225806
697.030979154629,-3.225806451612903
698.0310236010489,-6.451612903225806
699.0310680474687,-3.225806451612903
700.0311124938886,3.225806451612903
701.0311569403084,0.0
702.0312013867283,3.225806451612903
703.0312458331481,3.225806451612903
704.0312902795679,9.677419354838708
705.0313347259878,12.903225806451612
706.0313791724076,16.129032258064516
707.0314236188275,6.451612903225806
708.0314680652473,3.225806451612903
709.0315125116671,-19.354838709677416
710.031556958087,-25.806451612903224
711.0316014045068,-16.129032258064516
712.0316458509267,3.225806451612903
713.0316902973465,3.225806451612903
714.0317347437664,3.225806451612903
715.0317791901862,3.225806451612903
716.031823636606,0.0
717.0318680830259,3.225806451612903
718.0319125294457,0.0
719.0319569758656,-6.451612903225806
720.0320014222854,-25.806451612903224
721.0320458687053,-9.677419354838708
722.0320903151251,-3.225806451612903
723.0321347615449,6.451612903225806
724.0321792079648,12.903225806451612
725.0322236543846,9.677419354838708
726.0322681008045,0.0
727.0323125472243,0.0
728.0323569936442,-9.677419354838708
729.032401440064,-6.451612903225806
730.0324458864837,-9.677419354838708
731.0324903329036,-3.225806451612903
732.0325347793234,-6.451612903225806
733.0325792257433,3.225806451612903
734.0326236721631,9.677419354838708
735.032668118583,-3.225806451612903
736.0327125650028,-3.225806451612903
737.0327570114226,-3.225806451612903
738.0328014578425,-9.677419354838708
739.0328459042623,3.225806451612903
740.0328903506822,0.0
741.032934797102,0.0
742.0329792435218,3.225806451612903
743.0330236899417,3.225806451612903
744.0330681363615,-3.225806451612903
745.0331125827814,3.225806451612903
746.0331570292012,3.225806451612903
747.0332014756211,-3.225806451612903
748.0332459220409,-6.451612903225806
749.0332903684607,-3.225806451612903
750.0333348148806,0.0
751.0333792613004,3.225806451612903
752.0334237077203,-6.451612903225806
753.0334681541401,-9.677419354838708
754.03351260056,3.225806451612903
755.0335570469798,3.225806451612903
756.0336014933996,16.129032258064516
757.0336459398195,9.677419354838708
758.0336903862393,0.0
759.0337348326592,3.225806451612903
760.033779279079,-6.451612903225806
761.0338237254989,-6.451612903225806
762.0338681719187,-9.677419354838708
763.0339126183385,-6.451612903225806
764.0339570647584,0.0
765.0340015111782,-9.677419354838708
766.0340459575981,-9.677419354838708
767.0340904040179,0.0
768.0341348504378,0.0
769.0341792968576,9.677419354838708
770.0342237432774,0.0
771.0342681896973,0.0
772.0343126361171,0.0
773.034357082537,-6.451612903225806
774.0344015289568,3.225806451612903
775.0344459753766,-9.677419354838708
776.0344904217965,0.0
777.0345348682163,0.0
778.0345793146362,0.0
779.034623761056,3.225806451612903
780.0346682074759,-9.677419354838708
781.0347126538957,-6.451612903225806
782.0347571003155,0.0
783.0348015467354,3.225806451612903
784.0348459931552,12.903225806451612
785.0348904395751,-3.225806451612903
786.0349348859949,6.451612903225806
787.0349793324148,12.903225806451612
788.0350237788346,16.129032258064516
789.0350682252543,16.129032258064516
790.0351126716743,0.0
791.035157118094,0.0
792.035201564514,-3.225806451612903
793.0352460109337,-9.677419354838708
794.0352904573537,-3.225806451612903
795.0353349037734,58.06451612903226
796.0353793501932,87.09677419354838
797.0354237966131,99.99999999999999
798.0354682430329,64.51612903225806
799.0355126894528,-9.677419354838708
800.0355571358726,-70.96774193548387
801.0356015822924,-116.12903225806453
802.0356460287123,-132.258064516129
803.0356904751321,-83.87096774193549
804.035734921552,-45.16129032258064
805.0357793679718,-19.354838709677416
806.0358238143917,19.354838709677416
807.0358682608115,38.70967741935483
808.0359127072313,25.806451612903224
809.0359571536512,32.25806451612903
810.036001600071,29.03225806451613
811.0360460464909,25.806451612903224
812.0360904929107,19.354838709677416
813.0361349393306,25.806451612903224
814.0361793857504,35.483870967741936
815.0362238321702,12.903225806451612
816.0362682785901,-9.677419354838708
817.0363127250099,-22.58064516129032
818.0363571714298,-32.25806451612903
819.0364016178496,-19.354838709677416
820.0364460642695,-22.58064516129032
821.0364905106893,-9.677419354838708
822.0365349571091,-9.677419354838708
823.036579403529,12.903225806451612
824.0366238499488,22.58064516129032
825.0366682963687,16.129032258064516
826.0367127427885,25.806451612903224
827.0367571892084,6.451612903225806
828.0368016356282,6.451612903225806
829.036846082048,-3.225806451612903
830.0368905284679,-9.677419354838708
831.0369349748877,3.225806451612903
832.0369794213076,3.225806451612903
833.0370238677274,6.451612903225806
834.0370683141472,3.225806451612903
835.0371127605671,-6.451612903225806
836.0371572069869,-9.677419354838708
837.0372016534068,-9.677419354838708
838.0372460998266,-9.677419354838708
839.0372905462465,-3.225806451612903
840.0373349926663,-9.677419354838708
841.0373794390861,-16.129032258064516
842.037423885506,-6.451612903225806
843.0374683319258,0.0
844.0375127783457,-3.225806451612903
845.0375572247655,0.0
846.0376016711854,0.0
847.0376461176052,0.0
848.037690564025,9.677419354838708
849.0377350104449,12.903225806451612
850.0377794568647,3.225806451612903
851.0378239032846,3.225806451612903
852.0378683497044,12.903225806451612
853.0379127961243,9.677419354838708
854.037957242544,9.677419354838708
855.0380016889638,3.225806451612903
856.0380461353838,0.0
857.0380905818035,3.225806451612903
858.0381350282235,0.0
859.0381794746432,3.225806451612903
860.038223921063,-3.225806451612903
861.0382683674829,3.225806451612903
862.0383128139027,3.225806451612903
863.0383572603226,-3.225806451612903
864.0384017067424,3.225806451612903
865.0384461531623,-6.451612903225806
866.0384905995821,0.0
867.0385350460019,-3.225806451612903
868.0385794924218,0.0
869.0386239388416,6.451612903225806
870.0386683852615,0.0
871.0387128316813,3.225806451612903
872.0387572781012,3.225806451612903
873.038801724521,-3.225806451612903
874.0388461709408,3.225806451612903
875.0388906173607,-6.451612903225806
876.0389350637805,3.225806451612903
877.0389795102004,-6.451612903225806
878.0390239566202,-6.451612903225806
879.0390684030401,-12.903225806451612
880.0391128494599,-16.129032258064516
881.0391572958797,-16.129032258064516
882.0392017422996,-12.903225806451612
883.0392461887194,-9.677419354838708
884.0392906351393,-6.451612903225806
885.0393350815591,-3.225806451612903
886.039379527979,9.677419354838708
887.0394239743988,9.677419354838708
888.0394684208186,3.225806451612903
889.0395128672385,6.451612903225806
890.0395573136583,3.225806451612903
891.0396017600782,0.0
892.039646206498,9.677419354838708
893.0396906529178,6.451612903225806
894.0397350993377,3.225806451612903
895.0397795457575,-6.451612903225806
896.0398239921774,9.677419354838708
897.0398684385972,3.225806451612903
898.0399128850171,-3.225806451612903
899.0399573314369,3.225806451612903
900.0400017778567,6.451612903225806
901.0400462242766,6.451612903225806
902.0400906706964,3.225806451612903
903.0401351171163,-3.225806451612903
904.0401795635361,0.0
905.040224009956,-6.451612903225806
906.0402684563758,-3.225806451612903
907.0403129027956,3.225806451612903
908.0403573492155,0.0
909.0404017956353,9.677419354838708
910.0404462420552,3.225806451612903
911.040490688475,0.0
912.0405351348949,-6.451612903225806
913.0405795813147,-6.451612903225806
914.0406240277345,9.677419354838708
915.0406684741544,0.0
916.0407129205742,3.225806451612903
917.0407573669941,9.677419354838708
918.0408018134139,12.903225806451612
919.0408462598336,0.0
920.0408907062535,-6.451612903225806
921.0409351526733,-6.451612903225806
922.0409795990932,3.225806451612903
923.041024045513,3.225806451612903
924.041068491933,6.451612903225806
925.0411129383527,3.225806451612903
926.0411573847725,3.225806451612903
927.0412018311924,0.0
928.0412462776122,-9.677419354838708
929.0412907240321,0.0
930.0413351704519,0.0
931.0413796168718,0.0
932.0414240632916,6.451612903225806
933.0414685097114,6.451612903225806
934.0415129561313,-6.451612903225806
935.0415574025511,-6.451612903225806
936.041601848971,3.225806451612903
937.0416462953908,22.58064516129032
938.0416907418107,58.06451612903226
939.0417351882305,83.87096774193549
940.0417796346503,87.09677419354838
941.0418240810702,38.70967741935483
942.04186852749,-32.25806451612903
943.0419129739099,-77.41935483870967
944.0419574203297,-119.35483870967742
945.0420018667496,-96.77419354838709
946.0420463131694,-58.06451612903226
947.0420907595892,-45.16129032258064
948.0421352060091,-19.354838709677416
949.0421796524289,0.0
950.0422240988488,-35.483870967741936
951.0422685452686,-22.58064516129032
952.0423129916884,3.225806451612903
953.0423574381083,6.451612903225806
954.0424018845281,16.129032258064516
955.042446330948,19.354838709677416
956.0424907773678,22.58064516129032
957.0425352237877,29.03225806451613
958.0425796702075,32.25806451612903
959.0426241166273,32.25806451612903
960.0426685630472,25.806451612903224
961.042713009467,19.354838709677416
962.0427574558869,12.903225806451612
963.0428019023067,9.677419354838708
964.0428463487266,-6.451612903225806
965.0428907951464,-16.129032258064516
966.0429352415662,-3.225806451612903
967.0429796879861,6.451612903225806
968.0430241344059,12.903225806451612
969.0430685808258,12.903225806451612
970.0431130272456,-3.225806451612903
971.0431574736655,12.903225806451612
972.0432019200853,16.129032258064516
973.0432463665051,22.58064516129032
974.043290812925,16.129032258064516
975.0433352593448,9.677419354838708
976.0433797057647,3.225806451612903
977.0434241521845,3.225806451612903
978.0434685986044,0.0
979.0435130450242,3.225806451612903
980.043557491444,-9.677419354838708
981.0436019378639,-9.677419354838708
982.0436463842836,-9.677419354838708
983.0436908307036,-25.806451612903224
984.0437352771233,-16.129032258064516
985.0437797235431,-12.903225806451612
986.043824169963,-3.225806451612903
987.0438686163828,0.0
988.0439130628027,0.0
989.0439575092225,9.677419354838708
990.0440019556424,-3.225806451612903
991.0440464020622,6.451612903225806
992.044090848482,-16.129032258064516
993.0441352949019,-16.129032258064516
994.0441797413217,0.0
995.0442241877416,0.0
996.0442686341614,-6.451612903225806
997.0443130805813,3.225806451612903
998.0443575270011,0.0
999.0444019734209,12.903225806451612
1000.0444464198408,6.451612903225806
1001.0444908662606,9.677419354838708
1002.0445353126805,9.677419354838708
1003.0445797591003,0.0
1004.0446242055202,6.451612903225806
1005.04466865194,0.0
1006.0447130983598,3.225806451612903
1007.0447575447797,6.451612903225806
1008.0448019911995,0.0
1009.0448464376194,0.0
1010.0448908840392,0.0
1011.044935330459,0.0
1012.0449797768789,-6.451612903225806
1013.0450242232987,-3.225806451612903
1014.0450686697186,0.0
1015.0451131161384,0.0
1016.0451575625583,9.677419354838708
1017.0452020089781,-6.451612903225806
1018.0452464553979,-6.451612903225806
1019.0452909018178,-3.225806451612903
1020.0453353482376,-9.677419354838708
1021.0453797946575,-3.225806451612903
1022.0454242410773,-6.451612903225806
1023.0454686874972,-3.225806451612903
1024.045513133917,3.225806451612903
1025.045557580337,-6.451612903225806
1026.0456020267566,3.225806451612903
1027.0456464731765,-6.451612903225806
1028.0456909195964,0.0
1029.0457353660163,-6.451612903225806
1030.045779812436,-12.903225806451612
1031.0458242588559,3.225806451612903
1032.0458687052758,3.225806451612903
1033.0459131516955,3.225806451612903
1034.0459575981154,0.0
1035.0460020445353,9.677419354838708
1036.0460464909552,3.225806451612903
1037.0460909373749,6.451612903225806
1038.0461353837948,3.225806451612903
1039.0461798302147,6.451612903225806
1040.0462242766343,-6.451612903225806
1041.0462687230543,3.225806451612903
1042.0463131694742,-6.451612903225806
1043.046357615894,-3.225806451612903
1044.0464020623137,-3.225806451612903
1045.0464465087337,-9.677419354838708
1046.0464909551536,-6.451612903225806
1047.0465354015732,0.0
1048.0465798479931,0.0
1049.046624294413,9.677419354838708
1050.046668740833,9.677419354838708
1051.0467131872526,6.451612903225806
1052.0467576336725,6.451612903225806
1053.0468020800924,3.225806451612903
1054.0468465265121,6.451612903225806
1055.046890972932,-3.225806451612903
1056.046935419352,-9.677419354838708
1057.0469798657716,3.225806451612903
1058.0470243121915,-6.451612903225806
1059.0470687586114,3.225806451612903
1060.0471132050313,-6.451612903225806
1061.047157651451,3.225806451612903
1062.047202097871,22.58064516129032
1063.0472465442908,35.483870967741936
1064.0472909907105,29.03225806451613
1065.0473354371304,61.29032258064516
1066.0473798835503,58.06451612903226
1067.0474243299702,51.61290322580645
1068.04746877639,29.03225806451613
1069.0475132228098,-16.129032258064516
1070.0475576692297,-70.96774193548387
1071.0476021156494,-93.54838709677418
1072.0476465620693,-109.6774193548387
1073.0476910084892,-77.41935483870967
1074.0477354549091,-48.387096774193544
1075.0477799013288,-35.483870967741936
1076.0478243477487,9.677419354838708
1077.0478687941686,38.70967741935483
1078.0479132405883,38.70967741935483
1079.0479576870082,45.16129032258064
1080.048002133428,32.25806451612903
1081.048046579848,-12.903225806451612
1082.0480910262677,-25.806451612903224
1083.0481354726876,9.677419354838708
1084.0481799191075,22.58064516129032
1085.0482243655272,22.58064516129032
1086.048268811947,16.129032258064516
1087.048313258367,16.129032258064516
1088.048357704787,3.225806451612903
1089.0484021512066,6.451612903225806
1090.0484465976265,9.677419354838708
1091.0484910440464,3.225806451612903
1092.048535490466,0.0
1093.048579936886,3.225806451612903
1094.0486243833059,3.225806451612903
1095.0486688297258,-3.225806451612903
1096.0487132761455,9.677419354838708
1097.0487577225654,6.451612903225806
1098.0488021689853,9.677419354838708
1099.048846615405,16.129032258064516
1100.0488910618249,9.677419354838708
1101.0489355082448,6.451612903225806
1102.0489799546647,3.225806451612903
1103.0490244010844,0.0
1104.0490688475043,3.225806451612903
1105.0491132939242,-3.225806451612903
1106.0491577403438,-3.225806451612903
1107.0492021867638,-9.677419354838708
1108.0492466331837,-9.677419354838708
1109.0492910796036,-6.451612903225806
1110.0493355260232,-6.451612903225806
1111.0493799724431,0.0
1112.049424418863,0.0
1113.0494688652827,3.225806451612903
1114.0495133117026,3.225806451612903
1115.0495577581225,6.451612903225806
1116.0496022045422,9.677419354838708
1117.0496466509621,3.225806451612903
1118.049691097382,0.0
1119.049735543802,6.451612903225806
1120.0497799902216,-6.451612903225806
1121.0498244366415,-12.903225806451612
1122.0498688830614,-12.903225806451612
1123.0499133294811,0.0
1124.049957775901,3.225806451612903
1125.050002222321,0.0
1126.0500466687408,6.451612903225806
1127.0500911151605,6.451612903225806
1128.0501355615804,3.225806451612903
1129.0501800080003,0.0
1130.05022445442,-12.903225806451612
1131.05026890084,0.0
1132.0503133472598,3.225806451612903
1133.0503577936797,0.0
1134.0504022400994,3.225806451612903
1135.0504466865193,6.451612903225806
1136.0504911329392,6.451612903225806
1137.050535579359,0.0
1138.0505800257788,0.0
1139.0506244721987,0.0
1140.0506689186186,0.0
1141.0507133650383,3.225806451612903
1142.0507578114582,-9.677419354838708
1143.050802257878,0.0
1144.0508467042978,-6.451612903225806
1145.0508911507177,6.451612903225806
1146.0509355971376,12.903225806451612
1147.0509800435575,12.903225806451612
1148.0510244899772,-3.225806451612903
1149.051068936397,3.225806451612903
1150.051113382817,-3.225806451612903
1151.0511578292367,0.0
1152.0512022756566,-6.451612903225806
1153.0512467220765,-9.677419354838708
1154.0512911684964,-3.225806451612903
1155.051335614916,-12.903225806451612
1156.051380061336,-6.451612903225806
1157.0514245077559,0.0
1158.0514689541756,-6.451612903225806
1159.0515134005955,0.0
1160.0515578470154,3.225806451612903
1161.0516022934353,3.225806451612903
1162.051646739855,6.451612903225806
1163.0516911862749,3.225806451612903
1164.0517356326948,3.225806451612903
1165.0517800791145,-6.451612903225806
1166.0518245255344,0.0
1167.0518689719543,3.225806451612903
1168.0519134183742,3.225806451612903
1169.0519578647938,0.0
1170.0520023112138,0.0
1171.0520467576337,6.451612903225806
1172.0520912040533,3.225806451612903
1173.0521356504732,0.0
1174.0521800968932,0.0
1175.0522245433128,0.0
1176.0522689897327,-9.677419354838708
1177.0523134361526,-12.903225806451612
1178.0523578825726,-3.225806451612903
1179.0524023289922,9.677419354838708
1180.0524467754121,3.225806451612903
1181.052491221832,6.451612903225806
1182.0525356682517,0.0
1183.0525801146716,0.0
1184.0526245610915,3.225806451612903
1185.0526690075114,6.451612903225806
1186.0527134539311,16.129032258064516
1187.052757900351,67.74193548387096
1188.052802346771,83.87096774193549
1189.0528467931906,99.99999999999999
1190.0528912396105,61.29032258064516
1191.0529356860304,-32.25806451612903
1192.0529801324503,-80.64516129032258
1193.05302457887,-129.03225806451613
1194.05306902529,-122.58064516129032
1195.0531134717098,-99.99999999999999
1196.0531579181295,-83.87096774193549
1197.0532023645494,-48.387096774193544
1198.0532468109693,3.225806451612903
1199.0532912573892,16.129032258064516
1200.053335703809,22.58064516129032
1201.0533801502288,29.03225806451613
1202.0534245966487,32.25806451612903
1203.0534690430684,22.58064516129032
1204.0535134894883,38.70967741935483
1205.0535579359082,25.806451612903224
1206.053602382328,29.03225806451613
1207.0536468287478,22.58064516129032
1208.0536912751677,19.354838709677416
1209.0537357215876,16.129032258064516
1210.0537801680073,3.225806451612903
1211.0538246144272,9.677419354838708
1212.053869060847,6.451612903225806
1213.053913507267,16.129032258064516
1214.0539579536867,22.58064516129032
1215.0540024001066,19.354838709677416
1216.0540468465265,9.677419354838708
1217.0540912929462,0.0
1218.054135739366,-6.451612903225806
1219.054180185786,-38.70967741935483
1220.054224632206,-61.29032258064516
1221.0542690786256,-29.03225806451613
1222.0543135250455,-6.451612903225806
1223.0543579714654,3.225806451612903
1224.054402417885,16.129032258064516
1225.054446864305,9.677419354838708
1226.0544913107249,3.225806451612903
1227.0545357571448,-3.225806451612903
1228.0545802035645,0.0
1229.0546246499844,3.225806451612903
1230.0546690964043,0.0
1231.054713542824,6.451612903225806
1232.0547579892439,0.0
1233.0548024356638,0.0
1234.0548468820837,3.225806451612903
1235.0548913285033,0.0
1236.0549357749233,-9.677419354838708
1237.0549802213432,-3.225806451612903
1238.0550246677628,0.0
1239.0550691141827,9.677419354838708
1240.0551135606026,12.903225806451612
1241.0551580070223,9.677419354838708
1242.0552024534422,12.903225806451612
1243.0552468998621,12.903225806451612
1244.055291346282,0.0
1245.0553357927017,-6.451612903225806
1246.0553802391216,-12.903225806451612
1247.0554246855415,-6.451612903225806
1248.0554691319612,-6.451612903225806
1249.0555135783811,6.451612903225806
1250.055558024801,3.225806451612903
1251.055602471221,0.0
1252.0556469176406,0.0
1253.0556913640605,0.0
1254.0557358104804,6.451612903225806
1255.0557802569,3.225806451612903
1256.05582470332,-3.225806451612903
1257.05586914974,-9.677419354838708
1258.0559135961598,-6.451612903225806
1259.0559580425795,-3.225806451612903
1260.0560024889994,3.225806451612903
1261.0560469354193,9.677419354838708
1262.056091381839,9.677419354838708
1263.056135828259,-9.677419354838708
1264.0561802746788,-9.677419354838708
1265.0562247210987,-12.903225806451612
1266.0562691675184,-3.225806451612903
1267.0563136139383,-3.225806451612903
1268.0563580603582,0.0
1269.0564025067779,3.225806451612903
1270.0564469531978,3.225806451612903
1271.0564913996177,16.129032258064516
1272.0565358460376,12.903225806451612
1273.0565802924573,3.225806451612903
1274.0566247388772,6.451612903225806
1275.056669185297,3.225806451612903
1276.0567136317168,6.451612903225806
1277.0567580781367,3.225806451612903
1278.0568025245566,0.0
1279.0568469709765,3.225806451612903
1280.0568914173962,3.225806451612903
1281.056935863816,-6.451612903225806
1282.056980310236,-3.225806451612903
1283.0570247566557,3.225806451612903
1284.0570692030756,3.225806451612903
1285.0571136494955,-3.225806451612903
1286.0571580959154,3.225806451612903
1287.057202542335,-6.451612903225806
1288.057246988755,0.0
1289.0572914351749,3.225806451612903
1290.0573358815946,-6.451612903225806
1291.0573803280145,-6.451612903225806
1292.0574247744344,0.0
1293.0574692208543,0.0
1294.057513667274,0.0
1295.0575581136939,3.225806451612903
1296.0576025601138,0.0
1297.0576470065334,3.225806451612903
1298.0576914529533,-3.225806451612903
1299.0577358993733,-9.677419354838708
1300.057780345793,-9.677419354838708
1301.0578247922128,-3.225806451612903
1302.0578692386327,3.225806451612903
1303.0579136850527,3.225806451612903
1304.0579581314723,9.677419354838708
1305.0580025778922,0.0
1306.0580470243121,12.903225806451612
1307.0580914707318,12.903225806451612
1308.0581359171517,3.225806451612903
1309.0581803635716,9.677419354838708
1310.0582248099915,9.677419354838708
1311.0582692564112,12.903225806451612
1312.0583137028311,16.129032258064516
1313.058358149251,16.129032258064516
1314.0584025956707,22.58064516129032
1315.0584470420906,0.0
1316.0584914885105,-9.677419354838708
1317.0585359349304,-12.903225806451612
1318.05858038135,-29.03225806451613
1319.05862482777,-32.25806451612903
1320.05866927419,-35.483870967741936
1321.0587137206096,-32.25806451612903
1322.0587581670295,-19.354838709677416
1323.0588026134494,0.0
1324.0588470598693,-3.225806451612903
1325.058891506289,-6.451612903225806
1326.058935952709,3.225806451612903
1327.0589803991288,3.225806451612903
1328.0590248455485,-3.225806451612903
1329.0590692919684,6.451612903225806
1330.0591137383883,-3.225806451612903
1331.0591581848082,-3.225806451612903
1332.059202631228,6.451612903225806
1333.0592470776478,3.225806451612903
1334.0592915240677,19.354838709677416
1335.0593359704874,22.58064516129032
1336.0593804169073,25.806451612903224
1337.0594248633272,25.806451612903224
1338.059469309747,25.806451612903224
1339.0595137561668,12.903225806451612
1340.0595582025867,0.0
1341.0596026490066,3.225806451612903
1342.0596470954263,-3.225806451612903
1343.0596915418462,-6.451612903225806
1344.059735988266,-6.451612903225806
1345.059780434686,-12.903225806451612
1346.0598248811057,-9.677419354838708
1347.0598693275256,-12.903225806451612
1348.0599137739455,-3.225806451612903
1349.0599582203652,0.0
1350.060002666785,-3.225806451612903
1351.060047113205,-6.451612903225806
1352.0600915596249,-3.225806451612903
1353.0601360060446,3.225806451612903
1354.0601804524645,9.677419354838708
1355.0602248988844,3.225806451612903
1356.060269345304,3.225806451612903
1357.060313791724,0.0
1358.0603582381439,3.225806451612903
1359.0604026845635,3.225806451612903
1360.0604471309834,0.0
1361.0604915774034,-3.225806451612903
1362.0605360238233,-6.451612903225806
1363.060580470243,-6.451612903225806
1364.0606249166628,0.0
1365.0606693630828,-9.677419354838708
1366.0607138095024,-6.451612903225806
1367.0607582559223,16.129032258064516
1368.0608027023422,54.83870967741935
1369.0608471487622,67.74193548387096
1370.0608915951818,61.29032258064516
1371.0609360416017,19.354838709677416
1372.0609804880216,-25.806451612903224
1373.0610249344413,-45.16129032258064
1374.0610693808612,-74.19354838709677
1375.0611138272811,-67.74193548387096
1376.061158273701,-35.483870967741936
1377.0612027201207,-38.70967741935483
1378.0612471665406,-70.96774193548387
1379.0612916129605,-22.58064516129032
1380.0613360593802,16.129032258064516
1381.0613805058001,32.25806451612903
1382.06142495222,19.354838709677416
1383.06146939864,19.354838709677416
1384.0615138450596,19.354838709677416
1385.0615582914795,9.677419354838708
1386.0616027378994,19.354838709677416
1387.061647184319,12.903225806451612
1388.061691630739,9.677419354838708
1389.061736077159,12.903225806451612
1390.0617805235788,9.677419354838708
1391.0618249699985,16.129032258064516
1392.0618694164184,9.677419354838708
1393.0619138628383,9.677419354838708
1394.061958309258,6.451612903225806
1395.062002755678,3.225806451612903
1396.0620472020978,3.225806451612903
1397.0620916485177,0.0
1398.0621360949374,-6.451612903225806
1399.0621805413573,6.451612903225806
1400.0622249877772,3.225806451612903
1401.0622694341969,0.0
1402.0623138806168,6.451612903225806
1403.0623583270367,19.354838709677416
1404.0624027734566,22.58064516129032
1405.0624472198763,3.225806451612903
1406.0624916662962,-6.451612903225806
1407.062536112716,-22.58064516129032
1408.0625805591358,-25.806451612903224
1409.0626250055557,-25.806451612903224
1410.0626694519756,-9.677419354838708
1411.0627138983955,6.451612903225806
1412.0627583448152,38.70967741935483
1413.062802791235,54.83870967741935
1414.062847237655,48.387096774193544
1415.0628916840747,25.806451612903224
1416.0629361304946,-16.129032258064516
1417.0629805769145,-64.51612903225806
1418.0630250233341,-77.41935483870967
1419.063069469754,-64.51612903225806
1420.063113916174,-32.25806451612903
1421.0631583625939,-12.903225806451612
1422.0632028090135,-16.129032258064516
1423.0632472554335,6.451612903225806
1424.0632917018534,6.451612903225806
1425.063336148273,9.677419354838708
1426.063380594693,12.903225806451612
1427.0634250411129,16.129032258064516
1428.0634694875328,3.225806451612903
1429.0635139339524,12.903225806451612
1430.0635583803723,3.225806451612903
1431.0636028267922,9.677419354838708
1432.063647273212,12.903225806451612
1433.0636917196318,6.451612903225806
1434.0637361660517,6.451612903225806
1435.0637806124716,9.677419354838708
1436.0638250588913,9.677419354838708
1437.0638695053112,12.903225806451612
1438.0639139517311,12.903225806451612
1439.0639583981508,9.677419354838708
1440.0640028445707,0.0
1441.0640472909906,3.225806451612903
1442.0640917374105,9.677419354838708
1443.0641361838302,0.0
1444.0641806302501,-3.225806451612903
1445.06422507667,-6.451612903225806
1446.0642695230897,-9.677419354838708
1447.0643139695096,6.451612903225806
1448.0643584159295,3.225806451612903
1449.0644028623494,-6.451612903225806
1450.064447308769,-12.903225806451612
1451.064491755189,-9.677419354838708
1452.064536201609,-6.451612903225806
1453.0645806480286,0.0
1454.0646250944485,3.225806451612903
1455.0646695408684,-3.225806451612903
1456.0647139872883,0.0
1457.064758433708,-9.677419354838708
1458.064802880128,-9.677419354838708
1459.0648473265478,-6.451612903225806
1460.0648917729675,-12.903225806451612
1461.0649362193874,-3.225806451612903
1462.0649806658073,3.225806451612903
1463.0650251122272,3.225806451612903
1464.0650695586469,12.903225806451612
1465.0651140050668,3.225806451612903
1466.0651584514867,9.677419354838708
1467.0652028979064,6.451612903225806
1468.0652473443263,0.0
1469.0652917907462,9.677419354838708
1470.065336237166,0.0
1471.0653806835858,0.0
1472.0654251300057,-3.225806451612903
1473.0654695764256,6.451612903225806
1474.0655140228453,6.451612903225806
1475.0655584692652,3.225806451612903
1476.065602915685,9.677419354838708
1477.0656473621048,3.225806451612903
1478.0656918085247,0.0
1479.0657362549446,-3.225806451612903
1480.0657807013645,-6.451612903225806
1481.0658251477842,0.0
1482.065869594204,-3.225806451612903
1483.065914040624,0.0
1484.0659584870436,9.677419354838708
1485.0660029334636,3.225806451612903
1486.0660473798835,-6.451612903225806
1487.0660918263034,-6.451612903225806
1488.066136272723,9.677419354838708
1489.066180719143,51.61290322580645
1490.0662251655629,54.83870967741935
1491.0662696119825,67.74193548387096
1492.0663140584024,6.451612903225806
1493.0663585048223,-35.483870967741936
1494.0664029512423,-64.51612903225806
1495.066447397662,-80.64516129032258
1496.0664918440818,-77.41935483870967
1497.0665362905017,-38.70967741935483
1498.0665807369214,-25.806451612903224
1499.0666251833413,0.0
1500.0666696297612,6.451612903225806
1501.0667140761811,16.129032258064516
1502.0667585226008,16.129032258064516
1503.0668029690207,16.129032258064516
1504.0668474154406,22.58064516129032
1505.0668918618603,12.903225806451612
1506.0669363082802,12.903225806451612
1507.0669807547001,6.451612903225806
1508.06702520112,9.677419354838708
1509.0670696475397,9.677419354838708
1510.0671140939596,0.0
1511.0671585403795,-3.225806451612903
1512.0672029867992,-6.451612903225806
1513.067247433219,-6.451612903225806
1514.067291879639,9.677419354838708
1515.067336326059,9.677419354838708
1516.0673807724786,12.903225806451612
1517.0674252188985,9.677419354838708
1518.0674696653184,9.677419354838708
1519.067514111738,9.677419354838708
1520.067558558158,-6.451612903225806
1521.067603004578,-9.677419354838708
1522.0676474509978,-12.903225806451612
1523.0676918974175,-6.451612903225806
1524.0677363438374,-6.451612903225806
1525.0677807902573,-9.677419354838708
1526.067825236677,6.451612903225806
1527.067869683097,22.58064516129032
1528.0679141295168,25.806451612903224
1529.0679585759367,22.58064516129032
1530.0680030223564,6.451612903225806
1531.0680474687763,-6.451612903225806
1532.0680919151962,-6.451612903225806
1533.0681363616159,3.225806451612903
1534.0681808080358,-3.225806451612903
1535.0682252544557,-6.451612903225806
1536.0682697008756,-9.677419354838708
1537.0683141472953,12.903225806451612
1538.0683585937152,12.903225806451612
1539.068403040135,38.70967741935483
1540.0684474865548,29.03225806451613
1541.0684919329747,29.03225806451613
1542.0685363793946,9.677419354838708
1543.0685808258143,-58.06451612903226
1544.0686252722342,-80.64516129032258
1545.068669718654,-70.96774193548387
1546.068714165074,-25.806451612903224
1547.0687586114936,-16.129032258064516
1548.0688030579136,3.225806451612903
1549.0688475043335,19.354838709677416
1550.0688919507531,12.903225806451612
1551.068936397173,3.225806451612903
1552.068980843593,9.677419354838708
1553.0690252900129,3.225806451612903
1554.0690697364325,-9.677419354838708
1555.0691141828524,-16.129032258064516
1556.0691586292724,-6.451612903225806
1557.069203075692,12.903225806451612
1558.069247522112,12.903225806451612
1559.0692919685318,6.451612903225806
1560.0693364149517,-3.225806451612903
1561.0693808613714,6.451612903225806
1562.0694253077913,3.225806451612903
1563.0694697542112,0.0
1564.069514200631,12.903225806451612
1565.0695586470508,0.0
1566.0696030934707,9.677419354838708
1567.0696475398906,9.677419354838708
1568.0696919863103,3.225806451612903
1569.0697364327302,9.677419354838708
1570.0697808791501,6.451612903225806
1571.0698253255698,9.677419354838708
1572.0698697719897,12.903225806451612
1573.0699142184096,3.225806451612903
1574.0699586648295,0.0
1575.0700031112492,-6.451612903225806
1576.070047557669,0.0
1577.070092004089,-3.225806451612903
1578.0701364505087,0.0
1579.0701808969286,0.0
1580.0702253433485,-6.451612903225806
1581.0702697897684,0.0
1582.070314236188,6.451612903225806
1583.070358682608,0.0
1584.070403129028,6.451612903225806
1585.0704475754476,0.0
1586.0704920218675,0.0
1587.0705364682874,0.0
1588.0705809147073,-9.677419354838708
1589.070625361127,3.225806451612903
1590.070669807547,6.451612903225806
1591.0707142539668,3.225806451612903
1592.0707587003865,-3.225806451612903
1593.0708031468064,-12.903225806451612
1594.0708475932263,-9.677419354838708
1595.0708920396462,-9.677419354838708
1596.0709364860659,-6.451612903225806
1597.0709809324858,3.225806451612903
1598.0710253789057,48.387096774193544
1599.0710698253254,64.51612903225806
1600.0711142717453,67.74193548387096
1601.0711587181652,29.03225806451613
1602.0712031645849,-35.483870967741936
1603.0712476110048,-64.51612903225806
1604.0712920574247,-70.96774193548387
1605.0713365038446,-74.19354838709677
1606.0713809502643,-38.70967741935483
1607.0714253966842,-29.03225806451613
1608.071469843104,-12.903225806451612
1609.0715142895237,12.903225806451612
1610.0715587359437,19.354838709677416
1611.0716031823636,25.806451612903224
1612.0716476287835,22.58064516129032
1613.0716920752031,19.354838709677416
1614.071736521623,16.129032258064516
1615.071780968043,6.451612903225806
1616.0718254144626,6.451612903225806
1617.0718698608825,0.0
1618.0719143073024,9.677419354838708
1619.0719587537224,9.677419354838708
1620.072003200142,0.0
1621.072047646562,3.225806451612903
1622.0720920929818,3.225806451612903
1623.0721365394015,3.225806451612903
1624.0721809858214,3.225806451612903
1625.0722254322413,-6.451612903225806
1626.0722698786612,-9.677419354838708
1627.072314325081,-3.225806451612903
1628.0723587715008,-3.225806451612903
1629.0724032179207,-6.451612903225806
1630.0724476643404,0.0
1631.0724921107603,3.225806451612903
1632.0725365571802,0.0
1633.0725810036001,-3.225806451612903
1634.0726254500198,3.225806451612903
1635.0726698964397,3.225806451612903
1636.0727143428596,0.0
1637.0727587892793,0.0
1638.0728032356992,0.0
1639.0728476821191,16.129032258064516
1640.072892128539,16.129032258064516
1641.0729365749587,16.129032258064516
1642.0729810213786,3.225806451612903
1643.0730254677985,-9.677419354838708
1644.0730699142182,-25.806451612903224
1645.073114360638,-19.354838709677416
1646.073158807058,-22.58064516129032
1647.073203253478,-6.451612903225806
1648.0732476998976,9.677419354838708
1649.0732921463175,19.354838709677416
1650.0733365927374,19.354838709677416
1651.073381039157,9.677419354838708
1652.073425485577,9.677419354838708
1653.073469931997,6.451612903225806
1654.0735143784168,3.225806451612903
1655.0735588248365,-6.451612903225806
1656.0736032712564,0.0
1657.0736477176763,-6.451612903225806
1658.073692164096,-3.225806451612903
1659.0737366105159,0.0
1660.0737810569358,-9.677419354838708
1661.0738255033555,0.0
1662.0738699497754,-6.451612903225806
1663.0739143961953,-9.677419354838708
1664.0739588426152,0.0
1665.0740032890349,-9.677419354838708
1666.0740477354548,-3.225806451612903
1667.0740921818747,3.225806451612903
1668.0741366282944,0.0
1669.0741810747143,12.903225806451612
1670.0742255211342,16.129032258064516
1671.074269967554,19.354838709677416
1672.0743144139738,19.354838709677416
1673.0743588603937,3.225806451612903
1674.0744033068136,0.0
1675.0744477532332,-3.225806451612903
1676.0744921996532,6.451612903225806
1677.074536646073,0.0
1678.074581092493,9.677419354838708
1679.0746255389126,9.677419354838708
1680.0746699853325,-3.225806451612903
1681.0747144317525,-12.903225806451612
1682.0747588781721,-22.58064516129032
1683.074803324592,-29.03225806451613
1684.074847771012,-29.03225806451613
1685.0748922174319,-29.03225806451613
1686.0749366638515,-9.677419354838708
1687.0749811102714,3.225806451612903
1688.0750255566913,12.903225806451612
1689.075070003111,19.354838709677416
1690.075114449531,16.129032258064516
1691.0751588959508,19.354838709677416
1692.0752033423707,9.677419354838708
1693.0752477887904,12.903225806451612
1694.0752922352103,6.451612903225806
1695.0753366816302,3.225806451612903
1696.07538112805,3.225806451612903
1697.0754255744698,0.0
1698.0754700208897,0.0
1699.0755144673096,12.903225806451612
1700.0755589137293,-3.225806451612903
1701.0756033601492,-9.677419354838708
1702.0756478065691,-6.451612903225806
1703.0756922529888,-9.677419354838708
1704.0757366994087,6.451612903225806
1705.0757811458286,-9.677419354838708
1706.0758255922485,3.225806451612903
1707.0758700386682,6.451612903225806
1708.075914485088,-3.225806451612903
1709.075958931508,6.451612903225806
1710.0760033779277,9.677419354838708
1711.0760478243476,6.451612903225806
1712.0760922707675,3.225806451612903
1713.0761367171874,0.0
1714.076181163607,3.225806451612903
1715.076225610027,0.0
1716.076270056447,-3.225806451612903
1717.0763145028666,-6.451612903225806
1718.0763589492865,-6.451612903225806
1719.0764033957064,0.0
1720.076447842126,3.225806451612903
1721.076492288546,3.225806451612903
1722.0765367349659,-6.451612903225806
1723.0765811813858,0.0
1724.0766256278055,9.677419354838708
1725.0766700742254,-6.451612903225806
1726.0767145206453,3.225806451612903
1727.076758967065,-6.451612903225806
1728.0768034134849,0.0
1729.0768478599048,6.451612903225806
1730.0768923063247,-6.451612903225806
1731.0769367527444,0.0
1732.0769811991643,6.451612903225806
1733.0770256455842,3.225806451612903
1734.0770700920039,9.677419354838708
1735.0771145384238,-3.225806451612903
1736.0771589848437,3.225806451612903
1737.0772034312636,0.0
1738.0772478776832,-3.225806451612903
1739.0772923241032,-6.451612903225806
1740.077336770523,3.225806451612903
1741.0773812169427,-3.225806451612903
1742.0774256633626,9.677419354838708
1743.0774701097826,6.451612903225806
1744.0775145562025,-3.225806451612903
1745.0775590026221,-6.451612903225806
1746.077603449042,-3.225806451612903
1747.077647895462,0.0
1748.0776923418816,-3.225806451612903
1749.0777367883015,-3.225806451612903
1750.0777812347214,0.0
1751.0778256811413,0.0
1752.077870127561,-6.451612903225806
1753.077914573981,0.0
1754.0779590204008,6.451612903225806
1755.0780034668205,3.225806451612903
1756.0780479132404,3.225806451612903
1757.0780923596603,-3.225806451612903
1758.0781368060802,-6.451612903225806
1759.0781812525,0.0
1760.0782256989198,-6.451612903225806
1761.0782701453397,-6.451612903225806
1762.0783145917594,-9.677419354838708
1763.0783590381793,3.225806451612903
1764.0784034845992,-6.451612903225806
1765.0784479310191,-12.903225806451612
1766.0784923774388,6.451612903225806
1767.0785368238587,6.451612903225806
1768.0785812702786,0.0
1769.0786257166983,0.0
1770.0786701631182,12.903225806451612
1771.078714609538,12.903225806451612
1772.078759055958,16.129032258064516
1773.0788035023777,19.354838709677416
1774.0788479487976,16.129032258064516
1775.0788923952175,3.225806451612903
1776.0789368416372,0.0
1777.078981288057,0.0
1778.079025734477,-3.225806451612903
1779.0790701808967,0.0
1780.0791146273166,-3.225806451612903
1781.0791590737365,-6.451612903225806
1782.0792035201564,-16.129032258064516
1783.079247966576,-9.677419354838708
1784.079292412996,-3.225806451612903
1785.079336859416,0.0
1786.0793813058356,0.0
1787.0794257522555,0.0
1788.0794701986754,-3.225806451612903
1789.0795146450953,3.225806451612903
1790.079559091515,-3.225806451612903
1791.0796035379349,0.0
1792.0796479843548,0.0
1793.0796924307745,3.225806451612903
1794.0797368771944,3.225806451612903
1795.0797813236143,-3.225806451612903
1796.0798257700342,3.225806451612903
1797.0798702164539,6.451612903225806
1798.0799146628738,12.903225806451612
1799.0799591092937,19.354838709677416
1800.0800035557133,9.677419354838708
1801.0800480021333,3.225806451612903
1802.0800924485532,-9.677419354838708
1803.080136894973,-6.451612903225806
1804.0801813413927,3.225806451612903
1805.0802257878127,0.0
1806.0802702342326,0.0
1807.0803146806522,-9.677419354838708
1808.0803591270721,-9.677419354838708
1809.080403573492,-6.451612903225806
1810.080448019912,-6.451612903225806
1811.0804924663316,-6.451612903225806
1812.0805369127515,-9.677419354838708
1813.0805813591714,-9.677419354838708
1814.0806258055911,0.0
1815.080670252011,9.677419354838708
1816.080714698431,6.451612903225806
1817.0807591448508,3.225806451612903
1818.0808035912705,0.0
1819.0808480376904,22.58064516129032
1820.0808924841103,25.806451612903224
1821.08093693053,64.51612903225806
1822.08098137695,70.96774193548387
1823.0810258233698,67.74193548387096
1824.0810702697897,9.677419354838708
1825.0811147162094,-45.16129032258064
1826.0811591626293,-83.87096774193549
1827.0812036090492,-96.77419354838709
1828.081248055469,-83.87096774193549
1829.0812925018888,-41.935483870967744
1830.0813369483087,-38.70967741935483
1831.0813813947286,-12.903225806451612
1832.0814258411483,9.677419354838708
1833.0814702875682,19.354838709677416
1834.0815147339881,29.03225806451613
1835.0815591804078,19.354838709677416
1836.0816036268277,16.129032258064516
1837.0816480732476,16.129032258064516
1838.0816925196673,12.903225806451612
1839.0817369660872,9.677419354838708
1840.081781412507,6.451612903225806
1841.081825858927,12.903225806451612
1842.0818703053467,16.129032258064516
1843.0819147517666,6.451612903225806
1844.0819591981865,3.225806451612903
1845.0820036446062,-3.225806451612903
1846.082048091026,0.0
1847.082092537446,-6.451612903225806
1848.082136983866,3.225806451612903
1849.0821814302856,-6.451612903225806
1850.0822258767055,3.225806451612903
1851.0822703231254,0.0
1852.082314769545,0.0
1853.082359215965,-3.225806451612903
1854.0824036623849,3.225806451612903
1855.0824481088048,3.225806451612903
1856.0824925552245,3.225806451612903
1857.0825370016444,0.0
1858.0825814480643,3.225806451612903
1859.082625894484,6.451612903225806
1860.0826703409039,-3.225806451612903
1861.0827147873238,0.0
1862.0827592337437,-6.451612903225806
1863.0828036801634,-6.451612903225806
1864.0828481265833,3.225806451612903
1865.0828925730032,-3.225806451612903
1866.0829370194228,-9.677419354838708
1867.0829814658427,-9.677419354838708
1868.0830259122627,-9.677419354838708
1869.0830703586826,-3.225806451612903
1870.0831148051022,-3.225806451612903
1871.0831592515221,3.225806451612903
1872.083203697942,16.129032258064516
1873.0832481443617,19.354838709677416
1874.0832925907816,19.354838709677416
1875.0833370372015,6.451612903225806
1876.0833814836215,-6.451612903225806
1877.0834259300411,-9.677419354838708
1878.083470376461,-6.451612903225806
1879.083514822881,-6.451612903225806
1880.0835592693006,0.0
1881.0836037157205,0.0
1882.0836481621404,-3.225806451612903
1883.0836926085603,0.0
1884.08373705498,3.225806451612903
1885.0837815014,-9.677419354838708
1886.0838259478198,0.0
1887.0838703942395,-3.225806451612903
1888.0839148406594,-12.903225806451612
1889.0839592870793,6.451612903225806
1890.0840037334992,3.225806451612903
1891.084048179919,0.0
1892.0840926263388,3.225806451612903
1893.0841370727587,0.0
1894.0841815191784,0.0
1895.0842259655983,-6.451612903225806
1896.0842704120182,3.225806451612903
1897.0843148584381,3.225806451612903
1898.0843593048578,12.903225806451612
1899.0844037512777,16.129032258064516
1900.0844481976976,6.451612903225806
1901.0844926441173,3.225806451612903
1902.0845370905372,-6.451612903225806
1903.084581536957,3.225806451612903
1904.0846259833768,0.0
1905.0846704297967,-6.451612903225806
1906.0847148762166,-9.677419354838708
1907.0847593226365,0.0
1908.0848037690562,61.29032258064516
1909.084848215476,164.51612903225805
1910.084892661896,161.29032258064515
1911.0849371083157,135.48387096774192
1912.0849815547356,41.935483870967744
1913.0850260011555,-64.51612903225806
1914.0850704475754,-167.74193548387098
1915.085114893995,-229.0322580645161
1916.085159340415,-196.7741935483871
1917.0852037868349,-135.48387096774192
1918.0852482332546,-83.87096774193549
1919.0852926796745,-32.25806451612903
1920.0853371260944,12.903225806451612
1921.0853815725143,38.70967741935483
1922.085426018934,38.70967741935483
1923.0854704653539,25.806451612903224
1924.0855149117738,35.483870967741936
1925.0855593581934,25.806451612903224
1926.0856038046134,22.58064516129032
1927.0856482510333,12.903225806451612
1928.0856926974532,32.25806451612903
1929.0857371438728,35.483870967741936
1930.0857815902928,32.25806451612903
1931.0858260367127,32.25806451612903
1932.0858704831323,16.129032258064516
1933.0859149295522,3.225806451612903
1934.0859593759722,6.451612903225806
1935.086003822392,9.677419354838708
1936.0860482688117,6.451612903225806
1937.0860927152316,3.225806451612903
1938.0861371616515,19.354838709677416
1939.0861816080712,70.96774193548387
1940.0862260544911,64.51612903225806
1941.086270500911,22.58064516129032
1942.086314947331,-16.129032258064516
1943.0863593937506,-64.51612903225806
1944.0864038401705,-67.74193548387096
1945.0864482865904,-70.96774193548387
1946.0864927330101,-51.61290322580645
1947.08653717943,-25.806451612903224
1948.08658162585,-16.129032258064516
1949.0866260722698,9.677419354838708
1950.0866705186895,12.903225806451612
1951.0867149651094,19.354838709677416
1952.0867594115293,19.354838709677416
1953.086803857949,19.354838709677416
1954.086848304369,19.354838709677416
1955.0868927507888,9.677419354838708
1956.0869371972087,9.677419354838708
1957.0869816436284,-3.225806451612903
1958.0870260900483,-9.677419354838708
1959.0870705364682,0.0
1960.087114982888,3.225806451612903
1961.0871594293078,-3.225806451612903
1962.0872038757277,3.225806451612903
1963.0872483221474,-3.225806451612903
1964.0872927685673,9.677419354838708
1965.0873372149872,3.225806451612903
1966.087381661407,3.225806451612903
1967.0874261078268,9.677419354838708
1968.0874705542467,3.225806451612903
1969.0875150006666,6.451612903225806
1970.0875594470863,6.451612903225806
1971.0876038935062,9.677419354838708
1972.087648339926,6.451612903225806
1973.087692786346,3.225806451612903
1974.0877372327657,3.225806451612903
1975.0877816791856,-3.225806451612903
1976.0878261256055,-6.451612903225806
1977.0878705720252,-9.677419354838708
1978.087915018445,22.58064516129032
1979.087959464865,45.16129032258064
1980.0880039112849,64.51612903225806
1981.0880483577046,61.29032258064516
1982.0880928041245,22.58064516129032
1983.0881372505444,-29.03225806451613
1984.088181696964,-80.64516129032258
1985.088226143384,6.451612903225806
1986.0882705898039,41.935483870967744
1987.0883150362238,35.483870967741936
1988.0883594826435,22.58064516129032
1989.0884039290634,-29.03225806451613
1990.0884483754833,-64.51612903225806
1991.088492821903,-83.87096774193549
1992.0885372683229,-80.64516129032258
1993.0885817147428,-138.70967741935482
1994.0886261611627,-122.58064516129032
1995.0886706075823,-67.74193548387096
1996.0887150540023,-6.451612903225806
1997.0887595004222,16.129032258064516
1998.0888039468418,48.387096774193544
1999.0888483932617,83.87096774193549
2000.0888928396816,87.09677419354838
2001.0889372861016,64.51612903225806
2002.0889817325212,25.806451612903224
2003.0890261789411,3.225806451612903
2004.089070625361,-12.903225806451612
2005.0891150717807,-16.129032258064516
2006.0891595182006,-6.451612903225806
2007.0892039646205,-3.225806451612903
2008.0892484110404,-3.225806451612903
2009.0892928574601,3.225806451612903
2010.08933730388,9.677419354838708
2011.0893817503,12.903225806451612
2012.0894261967196,9.677419354838708
2013.0894706431395,9.677419354838708
2014.0895150895594,16.129032258064516
2015.0895595359793,0.0
2016.089603982399,6.451612903225806
2017.089648428819,6.451612903225806
2018.0896928752388,19.354838709677416
2019.0897373216585,80.64516129032258
2020.0897817680784,80.64516129032258
2021.0898262144983,38.70967741935483
2022.089870660918,-6.451612903225806
2023.089915107338,-41.935483870967744
2024.0899595537578,-16.129032258064516
2025.0900040001777,-22.58064516129032
2026.0900484465974,3.225806451612903
2027.0900928930173,-12.903225806451612
2028.0901373394372,83.87096774193549
2029.0901817858569,77.41935483870967
2030.0902262322768,-6.451612903225806
2031.0902706786967,-77.41935483870967
2032.0903151251166,-129.03225806451613
2033.0903595715363,-103.2258064516129
2034.0904040179562,-9.677419354838708
2035.090448464376,3.225806451612903
2036.0904929107958,-16.129032258064516
2037.0905373572157,-54.83870967741935
2038.0905818036356,-41.935483870967744
2039.0906262500555,-35.483870967741936
2040.0906706964752,-45.16129032258064
2041.090715142895,-12.903225806451612
2042.090759589315,16.129032258064516
2043.0908040357347,106.4516129032258
2044.0908484821546,180.64516129032256
2045.0908929285745,154.83870967741933
2046.0909373749944,151.61290322580646
2047.090981821414,58.06451612903226
2048.091026267834,-25.806451612903224
2049.091070714254,-93.54838709677418
2050.091115160674,-141.93548387096774
2051.0911596070937,-125.80645161290322
2052.091204053513,-109.6774193548387
2053.091248499933,-48.387096774193544
2054.091292946353,29.03225806451613
2055.091337392773,19.354838709677416
2056.0913818391928,61.29032258064516
2057.0914262856127,61.29032258064516
2058.0914707320326,45.16129032258064
2059.091515178452,25.806451612903224
2060.091559624872,-9.677419354838708
2061.091604071292,-45.16129032258064
2062.0916485177117,-70.96774193548387
2063.0916929641317,-45.16129032258064
2064.0917374105516,3.225806451612903
2065.0917818569715,16.129032258064516
2066.091826303391,12.903225806451612
2067.091870749811,12.903225806451612
2068.0919151962307,3.225806451612903
2069.0919596426506,9.677419354838708
2070.0920040890705,12.903225806451612
2071.0920485354904,6.451612903225806
2072.0920929819104,-6.451612903225806
2073.09213742833,-9.677419354838708
2074.0921818747497,0.0
2075.0922263211696,3.225806451612903
2076.0922707675895,32.25806451612903
2077.0923152140094,25.806451612903224
2078.0923596604293,6.451612903225806
2079.0924041068492,6.451612903225806
2080.0924485532687,12.903225806451612
2081.0924929996886,12.903225806451612
2082.0925374461085,3.225806451612903
2083.0925818925284,54.83870967741935
2084.0926263389483,77.41935483870967
2085.092670785368,54.83870967741935
2086.092715231788,19.354838709677416
2087.0927596782076,-9.677419354838708
2088.0928041246275,-67.74193548387096
2089.0928485710474,-99.99999999999999
2090.0928930174673,-119.35483870967742
2091.092937463887,-125.80645161290322
2092.092981910307,-99.99999999999999
2093.093026356727,-41.935483870967744
2094.0930708031465,-16.129032258064516
2095.0931152495664,-9.677419354838708
2096.0931596959863,19.354838709677416
2097.093204142406,22.58064516129032
2098.093248588826,29.03225806451613
2099.093293035246,35.483870967741936
2100.093337481666,51.61290322580645
2101.0933819280854,51.61290322580645
2102.0934263745053,38.70967741935483
2103.093470820925,19.354838709677416
2104.093515267345,25.806451612903224
2105.093559713765,167.74193548387098
2106.093604160185,174.19354838709677
2107.093648606605,90.32258064516128
2108.0936930530243,-29.03225806451613
2109.093737499444,-135.48387096774192
2110.093781945864,-167.74193548387098
2111.093826392284,-125.80645161290322
2112.093870838704,-106.4516129032258
2113.093915285124,-99.99999999999999
2114.0939597315432,106.4516129032258
2115.094004177963,309.67741935483866
2116.094048624383,283.8709677419355
2117.094093070803,135.48387096774192
2118.094137517223,-16.129032258064516
2119.0941819636428,-145.16129032258067
2120.0942264100627,-261.2903225806452
2121.094270856482,-309.67741935483866
2122.094315302902,-212.9032258064516
2123.094359749322,-193.54838709677418
2124.094404195742,-70.96774193548387
2125.0944486421618,119.35483870967742
2126.0944930885817,161.29032258064515
2127.0945375350016,99.99999999999999
2128.094581981421,93.54838709677418
2129.094626427841,45.16129032258064
2130.094670874261,0.0
2131.0947153206807,-9.677419354838708
2132.0947597671006,-16.129032258064516
2133.0948042135205,35.483870967741936
2134.0948486599405,129.03225806451613
2135.09489310636,132.258064516129
2136.09493755278,132.258064516129
2137.0949819991997,19.354838709677416
2138.0950264456196,-80.64516129032258
2139.0950708920395,-132.258064516129
2140.0951153384594,-209.6774193548387
2141.0951597848793,-167.74193548387098
2142.095204231299,-90.32258064516128
2143.0952486777187,0.0
2144.0952931241386,35.483870967741936
2145.0953375705585,25.806451612903224
2146.0953820169784,9.677419354838708
2147.0954264633983,16.129032258064516
2148.0954709098182,38.70967741935483
2149.0955153562377,48.387096774193544
2150.0955598026576,54.83870967741935
2151.0956042490775,51.61290322580645
2152.0956486954974,25.806451612903224
2153.0956931419173,12.903225806451612
2154.095737588337,-6.451612903225806
2155.095782034757,-22.58064516129032
2156.0958264811766,-12.903225806451612
2157.0958709275965,0.0
2158.0959153740164,-9.677419354838708
2159.0959598204363,3.225806451612903
2160.096004266856,16.129032258064516
2161.096048713276,87.09677419354838
2162.096093159696,241.93548387096774
2163.0961376061155,158.06451612903226
2164.0961820525354,41.935483870967744
2165.0962264989553,-109.6774193548387
2166.096270945375,-187.09677419354836
2167.096315391795,-145.16129032258067
2168.096359838215,-135.48387096774192
2169.096404284635,-122.58064516129032
2170.0964487310544,-48.387096774193544
2171.0964931774743,16.129032258064516
2172.096537623894,25.806451612903224
2173.096582070314,103.2258064516129
2174.096626516734,190.32258064516128
2175.096670963154,174.19354838709677
2176.096715409574,93.54838709677418
2177.0967598559932,-12.903225806451612
2178.096804302413,-96.77419354838709
2179.096848748833,-45.16129032258064
2180.096893195253,12.903225806451612
2181.096937641673,61.29032258064516
2182.096982088093,99.99999999999999
2183.0970265345127,6.451612903225806
2184.097070980932,-64.51612903225806
2185.097115427352,-177.41935483870967
2186.097159873772,-229.0322580645161
2187.097204320192,-270.96774193548384
2188.0972487666118,-225.8064516129032
2189.0972932130317,-54.83870967741935
2190.0973376594516,16.129032258064516
2191.097382105871,51.61290322580645
2192.097426552291,83.87096774193549
2193.097470998711,96.77419354838709
2194.0975154451307,96.77419354838709
2195.0975598915506,74.19354838709677
2196.0976043379706,87.09677419354838
2197.0976487843905,187.09677419354836
2198.09769323081,177.41935483870967
2199.09773767723,116.12903225806453
2200.0977821236497,83.87096774193549
2201.0978265700696,241.93548387096774
2202.0978710164895,264.516129032258
2203.0979154629094,199.99999999999997
2204.0979599093293,77.41935483870967
2205.098004355749,-87.09677419354838
2206.0980488021687,-206.4516129032258
2207.0980932485886,-316.1290322580645
2208.0981376950085,-380.64516129032256
2209.0981821414284,-493.54838709677415
2210.0982265878483,-332.25806451612897
2211.0982710342682,-151.61290322580646
2212.0983154806877,-38.70967741935483
2213.0983599271076,3.225806451612903
2214.0984043735275,3.225806451612903
2215.0984488199474,9.677419354838708
2216.0984932663673,119.35483870967742
2217.098537712787,180.64516129032256
2218.098582159207,203.2258064516129
2219.0986266056266,125.80645161290322
2220.0986710520465,35.483870967741936
2221.0987154984664,0.0
2222.0987599448863,35.483870967741936
2223.098804391306,96.77419354838709
2224.098848837726,87.09677419354838
2225.098893284146,80.64516129032258
2226.0989377305655,-19.354838709677416
2227.0989821769854,-129.03225806451613
2228.0990266234053,-161.29032258064515
2229.099071069825,-161.29032258064515
2230.099115516245,-109.6774193548387
2231.099159962665,-22.58064516129032
2232.0992044090845,12.903225806451612
2233.0992488555044,58.06451612903226
2234.0992933019243,116.12903225806453
2235.099337748344,141.93548387096774
2236.099382194764,129.03225806451613
2237.099426641184,77.41935483870967
2238.099471087604,54.83870967741935
2239.0995155340233,70.96774193548387
2240.0995599804432,158.06451612903226
2241.099604426863,58.06451612903226
2242.099648873283,-67.74193548387096
2243.099693319703,-148.38709677419354
2244.099737766123,-203.2258064516129
2245.099782212543,-135.48387096774192
2246.0998266589622,-106.4516129032258
2247.099871105382,-141.93548387096774
2248.099915551802,-48.387096774193544
2249.099959998222,22.58064516129032
2250.100004444642,51.61290322580645
2251.1000488910618,87.09677419354838
2252.1000933374817,103.2258064516129
2253.100137783901,83.87096774193549
2254.100182230321,35.483870967741936
2255.100226676741,-29.03225806451613
2256.100271123161,-35.483870967741936
2257.1003155695807,-41.935483870967744
2258.1003600160006,-35.483870967741936
2259.1004044624206,-22.58064516129032
2260.10044890884,167.74193548387098
2261.10049335526,706.4516129032257
2262.10053780168,748.3870967741934
2263.1005822480997,445.1612903225806
2264.1006266945196,-103.2258064516129
2265.1006711409395,-567.741935483871
2266.1007155873594,-709.6774193548387
2267.100760033779,-658.0645161290322
2268.100804480199,-461.2903225806451
2269.1008489266187,-32.25806451612903
2270.1008933730386,267.7419354838709
2271.1009378194585,261.2903225806452
2272.1009822658784,80.64516129032258
2273.1010267122983,-170.96774193548387
2274.101071158718,-232.25806451612905
2275.1011156051377,-148.38709677419354
2276.1011600515576,-54.83870967741935
2277.1012044979775,3.225806451612903
2278.1012489443974,3.225806451612903
2279.1012933908173,167.74193548387098
2280.101337837237,158.06451612903226
2281.1013822836567,61.29032258064516
2282.1014267300766,-45.16129032258064
2283.1014711764965,-112.9032258064516
2284.1015156229164,-51.61290322580645
2285.1015600693363,-16.129032258064516
2286.101604515756,132.258064516129
2287.101648962176,377.41935483870964
2288.1016934085956,316.1290322580645
2289.1017378550155,158.06451612903226
2290.1017823014354,-38.70967741935483
2291.1018267478553,-187.09677419354836
2292.101871194275,-222.5806451612903
2293.101915640695,-222.5806451612903
2294.101960087115,-161.29032258064515
2295.1020045335345,-93.54838709677418
2296.1020489799544,-77.41935483870967
2297.1020934263743,25.806451612903224
2298.102137872794,109.6774193548387
2299.102182319214,90.32258064516128
2300.102226765634,64.51612903225806
2301.102271212054,25.806451612903224
2302.1023156584733,3.225806451612903
2303.1023601048933,-25.806451612903224
2304.102404551313,-9.677419354838708
2305.102448997733,-6.451612903225806
2306.102493444153,41.935483870967744
2307.102537890573,112.9032258064516
2308.102582336993,300.0
2309.1026267834122,329.0322580645161
2310.102671229832,122.58064516129032
2311.102715676252,-103.2258064516129
2312.102760122672,-258.06451612903226
2313.102804569092,-264.516129032258
2314.1028490155118,-212.9032258064516
2315.1028934619317,-212.9032258064516
2316.102937908351,-70.96774193548387
2317.102982354771,164.51612903225805
2318.103026801191,383.8709677419355
2319.103071247611,516.1290322580645
2320.1031156940307,387.09677419354836
2321.1031601404507,99.99999999999999
2322.1032045868706,-109.6774193548387
2323.10324903329,-22.58064516129032
2324.10329347971,-229.0322580645161
2325.10333792613,-377.41935483870964
2326.1033823725497,-293.54838709677415
2327.1034268189696,-358.06451612903226
2328.1034712653895,-487.0967741935484
2329.1035157118095,-406.4516129032258
2330.103560158229,-87.09677419354838
2331.103604604649,138.70967741935482
2332.1036490510687,216.12903225806448
2333.1036934974886,180.64516129032256
2334.1037379439085,74.19354838709677
2335.1037823903284,58.06451612903226
2336.1038268367483,45.16129032258064
2337.103871283168,3.225806451612903
2338.1039157295877,35.483870967741936
2339.1039601760076,64.51612903225806
2340.1040046224275,61.29032258064516
2341.1040490688474,170.96774193548387
2342.1040935152673,235.48387096774195
2343.1041379616872,158.06451612903226
2344.1041824081067,45.16129032258064
2345.1042268545266,-58.06451612903226
2346.1042713009465,-87.09677419354838
2347.1043157473664,-87.09677419354838
2348.1043601937863,-77.41935483870967
2349.104404640206,-103.2258064516129
2350.1044490866257,-48.387096774193544
2351.1044935330456,3.225806451612903
2352.1045379794655,16.129032258064516
2353.1045824258854,161.29032258064515
2354.1046268723053,222.5806451612903
2355.104671318725,193.54838709677418
2356.104715765145,77.41935483870967
2357.1047602115646,-106.4516129032258
2358.1048046579845,-148.38709677419354
2359.1048491044044,-167.74193548387098
2360.1048935508243,-203.2258064516129
2361.104937997244,-109.6774193548387
2362.104982443664,3.225806451612903
2363.105026890084,132.258064516129
2364.1050713365034,119.35483870967742
2365.1051157829233,64.51612903225806
2366.1051602293433,-38.70967741935483
2367.105204675763,-77.41935483870967
2368.105249122183,-74.19354838709677
2369.105293568603,70.96774193548387
2370.105338015023,158.06451612903226
2371.1053824614423,106.4516129032258
2372.1054269078622,-9.677419354838708
2373.105471354282,-122.58064516129032
2374.105515800702,-148.38709677419354
2375.105560247122,-132.258064516129
2376.105604693542,-67.74193548387096
2377.1056491399618,93.54838709677418
2378.105693586381,93.54838709677418
2379.105738032801,38.70967741935483
2380.105782479221,-35.483870967741936
2381.105826925641,90.32258064516128
2382.105871372061,412.9032258064516
2383.1059158184808,393.5483870967742
2384.1059602649007,83.87096774193549
2385.10600471132,-203.2258064516129
2386.10604915774,-374.1935483870967
2387.10609360416,-448.3870967741935
2388.10613805058,-422.5806451612903
2389.1061824969997,-216.12903225806448
2390.1062269434196,-35.483870967741936
2391.1062713898395,145.16129032258067
2392.106315836259,312.9032258064516
2393.106360282679,467.741935483871
2394.106404729099,293.54838709677415
2395.1064491755187,29.03225806451613
2396.1064936219386,-187.09677419354836
2397.1065380683585,-277.41935483870964
2398.1065825147784,-348.38709677419354
2399.106626961198,-222.5806451612903
2400.106671407618,-103.2258064516129
2401.1067158540377,16.129032258064516
2402.1067603004576,80.64516129032258
2403.1068047468775,106.4516129032258
2404.1068491932974,106.4516129032258
2405.1068936397173,90.32258064516128
2406.106938086137,80.64516129032258
2407.1069825325567,22.58064516129032
2408.1070269789766,12.903225806451612
2409.1070714253965,64.51612903225806
2410.1071158718164,80.64516129032258
2411.1071603182363,209.6774193548387
2412.107204764656,232.25806451612905
2413.1072492110757,77.41935483870967
2414.1072936574956,-83.87096774193549
2415.1073381039155,-167.74193548387098
2416.1073825503354,19.354838709677416
2417.1074269967553,16.129032258064516
2418.107471443175,-61.29032258064516
2419.107515889595,-93.54838709677418
2420.1075603360146,-167.74193548387098
2421.1076047824345,-199.99999999999997
2422.1076492288544,-187.09677419354836
2423.1076936752743,-87.09677419354838
2424.107738121694,12.903225806451612
2425.107782568114,32.25806451612903
2426.107827014534,51.61290322580645
2427.1078714609534,61.29032258064516
2428.1079159073734,51.61290322580645
2429.1079603537933,41.935483870967744
2430.108004800213,54.83870967741935
2431.108049246633,54.83870967741935
2432.108093693053,70.96774193548387
2433.108138139473,54.83870967741935
2434.1081825858923,38.70967741935483
2435.1082270323122,51.61290322580645
2436.108271478732,29.03225806451613
2437.108315925152,80.64516129032258
2438.108360371572,129.03225806451613
2439.108404817992,187.09677419354836
2440.108449264412,177.41935483870967
2441.108493710831,32.25806451612903
2442.108538157251,-174.19354838709677
2443.108582603671,-254.83870967741933
2444.108627050091,-241.93548387096774
2445.108671496511,-203.2258064516129
2446.1087159429308,-174.19354838709677
2447.1087603893507,-141.93548387096774
2448.10880483577,-3.225806451612903
2449.10884928219,80.64516129032258
2450.10889372861,41.935483870967744
2451.10893817503,0.0
2452.1089826214497,-3.225806451612903
2453.1090270678696,-6.451612903225806
2454.1090715142896,0.0
2455.109115960709,32.25806451612903
2456.109160407129,83.87096774193549
2457.109204853549,122.58064516129032
2458.1092492999687,199.99999999999997
2459.1092937463886,180.64516129032256
2460.1093381928085,61.29032258064516
2461.1093826392284,-87.09677419354838
2462.109427085648,-106.4516129032258
2463.109471532068,119.35483870967742
2464.1095159784877,119.35483870967742
2465.1095604249076,-22.58064516129032
2466.1096048713275,-112.9032258064516
2467.1096493177474,-119.35483870967742
2468.1096937641673,-116.12903225806453
2469.109738210587,119.35483870967742
2470.1097826570067,306.4516129032258
2471.1098271034266,322.5806451612903
2472.1098715498465,116.12903225806453
2473.1099159962664,-183.8709677419355
2474.1099604426863,-332.25806451612897
2475.1100048891058,-490.3225806451613
2476.1100493355257,-374.1935483870967
2477.1100937819456,-145.16129032258067
2478.1101382283655,274.19354838709677
2479.1101826747854,412.9032258064516
2480.1102271212053,258.06451612903226
2481.110271567625,-12.903225806451612
2482.1103160140447,-170.96774193548387
2483.1103604604646,-103.2258064516129
2484.1104049068845,-32.25806451612903
2485.1104493533044,125.80645161290322
2486.1104937997243,103.2258064516129
2487.110538246144,0.0
2488.110582692564,-209.6774193548387
2489.1106271389835,-390.3225806451613
2490.1106715854035,-367.741935483871
2491.1107160318234,-170.96774193548387
2492.1107604782433,-45.16129032258064
2493.110804924663,90.32258064516128
2494.110849371083,112.9032258064516
2495.110893817503,116.12903225806453
2496.1109382639224,103.2258064516129
2497.1109827103423,96.77419354838709
2498.1110271567622,83.87096774193549
2499.111071603182,80.64516129032258
2500.111116049602,96.77419354838709
2501.111160496022,222.5806451612903
2502.111204942442,229.0322580645161
2503.1112493888613,212.9032258064516
2504.1112938352812,48.387096774193544
2505.111338281701,-109.6774193548387
2506.111382728121,-216.12903225806448
2507.111427174541,-216.12903225806448
2508.111471620961,-199.99999999999997
2509.1115160673808,-125.80645161290322
2510.1115605138,-6.451612903225806
2511.11160496022,61.29032258064516
2512.11164940664,67.74193548387096
2513.11169385306,80.64516129032258
2514.11173829948,70.96774193548387
2515.1117827458997,12.903225806451612
2516.1118271923197,3.225806451612903
2517.111871638739,19.354838709677416
2518.111916085159,12.903225806451612
2519.111960531579,16.129032258064516
2520.112004977999,9.677419354838708
2521.1120494244187,9.677419354838708
2522.1120938708386,9.677419354838708
2523.1121383172585,-3.225806451612903
2524.112182763678,-3.225806451612903
2525.112227210098,9.677419354838708
2526.112271656518,96.77419354838709
2527.1123161029377,254.83870967741933
2528.1123605493576,319.3548387096774
2529.1124049957775,348.38709677419354
2530.1124494421974,125.80645161290322
2531.112493888617,-254.83870967741933
2532.112538335037,-441.9354838709677
2533.1125827814567,-412.9032258064516
2534.1126272278766,-106.4516129032258
2535.1126716742965,125.80645161290322
2536.1127161207164,70.96774193548387
2537.1127605671363,-116.12903225806453
2538.1128050135558,-212.9032258064516
2539.1128494599757,-251.61290322580643
2540.1128939063956,-187.09677419354836
2541.1129383528155,-180.64516129032256
2542.1129827992354,3.225806451612903
2543.1130272456553,106.4516129032258
2544.113071692075,96.77419354838709
2545.1131161384947,38.70967741935483
2546.1131605849146,74.19354838709677
2547.1132050313345,93.54838709677418
2548.1132494777544,87.09677419354838
2549.1132939241743,93.54838709677418
2550.113338370594,193.54838709677418
2551.113382817014,174.19354838709677
2552.1134272634336,122.58064516129032
2553.1134717098535,70.96774193548387
2554.1135161562734,0.0
2555.1135606026933,87.09677419354838
2556.113605049113,187.09677419354836
2557.113649495533,445.1612903225806
2558.113693941953,461.2903225806451
2559.1137383883724,132.258064516129
2560.1137828347923,-329.0322580645161
2561.1138272812123,-641.9354838709677
2562.113871727632,-625.8064516129032
2563.113916174052,-677.4193548387096
2564.113960620472,-503.22580645161287
2565.114005066892,-232.25806451612905
2566.1140495133113,-9.677419354838708
2567.1140939597312,119.35483870967742
2568.114138406151,180.64516129032256
2569.114182852571,180.64516129032256
2570.114227298991,151.61290322580646
2571.114271745411,138.70967741935482
2572.1143161918308,119.35483870967742
2573.11436063825,106.4516129032258
2574.11440508467,87.09677419354838
2575.11444953109,64.51612903225806
2576.11449397751,74.19354838709677
2577.11453842393,61.29032258064516
2578.1145828703498,70.96774193548387
2579.1146273167697,93.54838709677418
2580.114671763189,129.03225806451613
2581.114716209609,196.7741935483871
2582.114760656029,332.25806451612897
2583.114805102449,267.7419354838709
2584.1148495488687,-45.16129032258064
2585.1148939952886,-348.38709677419354
2586.1149384417085,-387.09677419354836
2587.114982888128,-329.0322580645161
2588.115027334548,-387.09677419354836
2589.115071780968,-174.19354838709677
2590.1151162273877,3.225806451612903
2591.1151606738076,61.29032258064516
2592.1152051202275,58.06451612903226
2593.115249566647,41.935483870967744
2594.115294013067,45.16129032258064
2595.115338459487,38.70967741935483
2596.1153829059067,64.51612903225806
2597.1154273523266,54.83870967741935
2598.1154717987465,54.83870967741935
2599.1155162451664,38.70967741935483
2600.115560691586,45.16129032258064
2601.115605138006,45.16129032258064
2602.1156495844257,80.64516129032258
2603.1156940308456,96.77419354838709
2604.1157384772655,96.77419354838709
2605.1157829236854,-6.451612903225806
2606.1158273701053,-58.06451612903226
2607.1158718165248,-32.25806451612903
2608.1159162629447,-48.387096774193544
2609.1159607093646,-77.41935483870967
2610.1160051557845,-87.09677419354838
2611.1160496022044,-51.61290322580645
2612.1160940486243,32.25806451612903
2613.116138495044,122.58064516129032
2614.1161829414636,280.6451612903225
2615.1162273878836,193.54838709677418
2616.1162718343035,35.483870967741936
2617.1163162807234,-129.03225806451613
2618.1163607271433,-229.0322580645161
2619.116405173563,-229.0322580645161
2620.116449619983,-196.7741935483871
2621.1164940664025,-93.54838709677418
2622.1165385128224,6.451612903225806
2623.1165829592424,25.806451612903224
2624.1166274056623,6.451612903225806
2625.116671852082,9.677419354838708
2626.116716298502,38.70967741935483
2627.116760744922,141.93548387096774
2628.1168051913414,354.83870967741933
2629.1168496377613,945.1612903225807
2630.1168940841812,964.516129032258
2631.116938530601,416.12903225806446
2632.116982977021,-283.8709677419355
2633.117027423441,-729.0322580645161
2634.117071869861,-803.2258064516129
2635.1171163162803,-990.3225806451613
2636.1171607627,-799.9999999999999
2637.11720520912,-399.99999999999994
2638.11724965554,-148.38709677419354
2639.11729410196,83.87096774193549
2640.11733854838,170.96774193548387
2641.1173829947998,170.96774193548387
2642.117427441219,116.12903225806453
2643.117471887639,206.4516129032258
2644.117516334059,225.8064516129032
2645.117560780479,199.99999999999997
2646.117605226899,154.83870967741933
2647.1176496733187,67.74193548387096
2648.1176941197386,16.129032258064516
2649.117738566158,-19.354838709677416
2650.117783012578,-22.58064516129032
2651.117827458998,6.451612903225806
2652.117871905418,38.70967741935483
2653.1179163518377,64.51612903225806
2654.1179607982576,54.83870967741935
2655.1180052446775,51.61290322580645
2656.118049691097,129.03225806451613
2657.118094137517,99.99999999999999
2658.118138583937,38.70967741935483
2659.1181830303567,-3.225806451612903
2660.1182274767766,-25.806451612903224
2661.1182719231965,-22.58064516129032
2662.1183163696164,-22.58064516129032
2663.118360816036,-35.483870967741936
2664.118405262456,-51.61290322580645
2665.1184497088757,16.129032258064516
2666.1184941552956,199.99999999999997
2667.1185386017155,203.2258064516129
2668.1185830481354,148.38709677419354
2669.1186274945553,-22.58064516129032
2670.1186719409748,-219.3548387096774
2671.1187163873947,-351.61290322580646
2672.1187608338146,-309.67741935483866
2673.1188052802345,-193.54838709677418
2674.1188497266544,-77.41935483870967
2675.1188941730743,51.61290322580645
2676.118938619494,122.58064516129032
2677.1189830659137,138.70967741935482
2678.1190275123336,116.12903225806453
2679.1190719587535,206.4516129032258
2680.1191164051734,129.03225806451613
2681.1191608515933,96.77419354838709
2682.119205298013,-9.677419354838708
2683.119249744433,-51.61290322580645
2684.1192941908525,-87.09677419354838
2685.1193386372724,-225.8064516129032
2686.1193830836924,-238.70967741935485
2687.1194275301123,-119.35483870967742
2688.119471976532,112.9032258064516
2689.119516422952,403.22580645161287
2690.119560869372,312.9032258064516
2691.1196053157914,93.54838709677418
2692.1196497622113,-258.06451612903226
2693.1196942086312,-351.61290322580646
2694.119738655051,-303.2258064516129
2695.119783101471,-312.9032258064516
2696.119827547891,-67.74193548387096
2697.119871994311,93.54838709677418
2698.1199164407303,125.80645161290322
2699.1199608871502,116.12903225806453
2700.12000533357,96.77419354838709
2701.12004977999,74.19354838709677
2702.12009422641,64.51612903225806
2703.12013867283,58.06451612903226
2704.1201831192498,45.16129032258064
2705.120227565669,32.25806451612903
2706.120272012089,25.806451612903224
2707.120316458509,22.58064516129032
2708.120360904929,19.354838709677416
2709.120405351349,12.903225806451612
2710.1204497977687,12.903225806451612
2711.120494244188,77.41935483870967
2712.120538690608,67.74193548387096
2713.120583137028,19.354838709677416
2714.120627583448,-70.96774193548387
2715.120672029868,-90.32258064516128
2716.1207164762877,93.54838709677418
2717.1207609227076,225.8064516129032
2718.120805369127,193.54838709677418
2719.120849815547,16.129032258064516
2720.120894261967,-193.54838709677418
2721.120938708387,-280.6451612903225
2722.1209831548067,-270.96774193548384
2723.1210276012266,-161.29032258064515
2724.1210720476465,-41.935483870967744
2725.121116494066,41.935483870967744
2726.121160940486,61.29032258064516
2727.121205386906,58.06451612903226
2728.1212498333257,48.387096774193544
2729.1212942797456,29.03225806451613
2730.1213387261655,25.806451612903224
2731.1213831725854,22.58064516129032
2732.121427619005,45.16129032258064
2733.1214720654248,58.06451612903226
2734.1215165118447,32.25806451612903
2735.1215609582646,25.806451612903224
2736.1216054046845,3.225806451612903
2737.1216498511044,16.129032258064516
2738.1216942975243,54.83870967741935
2739.1217387439438,193.54838709677418
2740.1217831903637,503.22580645161287
2741.1218276367836,580.6451612903227
2742.1218720832035,225.8064516129032
2743.1219165296234,-212.9032258064516
2744.1219609760433,190.32258064516128
2745.122005422463,225.8064516129032
2746.1220498688826,-12.903225806451612
2747.1220943153025,-516.1290322580645
2748.1221387617225,-712.9032258064516
2749.1221832081424,-967.741935483871
2750.1222276545623,-1029.032258064516
2751.122272100982,-380.64516129032256
2752.122316547402,0.0
2753.1223609938215,148.38709677419354
2754.1224054402414,83.87096774193549
2755.1224498866613,64.51612903225806
2756.1224943330812,170.96774193548387
2757.122538779501,180.64516129032256
2758.122583225921,164.51612903225805
2759.122627672341,174.19354838709677
2760.1226721187604,170.96774193548387
2761.1227165651803,145.16129032258067
2762.1227610116002,112.9032258064516
2763.12280545802,96.77419354838709
2764.12284990444,106.4516129032258
2765.12289435086,138.70967741935482
2766.12293879728,122.58064516129032
2767.1229832436993,29.03225806451613
2768.123027690119,-19.354838709677416
2769.123072136539,-38.70967741935483
2770.123116582959,-58.06451612903226
2771.123161029379,-67.74193548387096
2772.123205475799,-6.451612903225806
2773.1232499222187,25.806451612903224
2774.123294368638,19.354838709677416
2775.123338815058,12.903225806451612
2776.123383261478,16.129032258064516
2777.123427707898,16.129032258064516
2778.123472154318,9.677419354838708
2779.1235166007377,3.225806451612903
2780.1235610471576,3.225806451612903
2781.123605493577,0.0
2782.123649939997,6.451612903225806
2783.123694386417,16.129032258064516
2784.123738832837,19.354838709677416
2785.1237832792567,16.129032258064516
2786.1238277256766,3.225806451612903
2787.1238721720965,-12.903225806451612
2788.123916618516,-25.806451612903224
2789.123961064936,9.677419354838708
2790.124005511356,3.225806451612903
2791.1240499577757,-22.58064516129032
2792.1240944041956,-29.03225806451613
2793.1241388506155,-35.483870967741936
2794.1241832970354,-25.806451612903224
2795.124227743455,-16.129032258064516
2796.124272189875,41.935483870967744
2797.1243166362947,96.77419354838709
2798.1243610827146,77.41935483870967
2799.1244055291345,-16.129032258064516
2800.1244499755544,-67.74193548387096
2801.1244944219743,-16.129032258064516
2802.1245388683938,-48.387096774193544
2803.1245833148137,-58.06451612903226
2804.1246277612336,-70.96774193548387
2805.1246722076535,-54.83870967741935
2806.1247166540734,-3.225806451612903
2807.1247611004933,64.51612903225806
2808.124805546913,129.03225806451613
2809.1248499933326,241.93548387096774
2810.1248944397526,270.96774193548384
2811.1249388861725,96.77419354838709
2812.1249833325924,-135.48387096774192
2813.1250277790123,-383.8709677419355
2814.125072225432,-280.6451612903225
2815.125116671852,-135.48387096774192
2816.1251611182715,-90.32258064516128
2817.1252055646914,170.96774193548387
2818.1252500111113,477.4193548387097
2819.1252944575313,387.09677419354836
2820.125338903951,-25.806451612903224
2821.125383350371,-445.1612903225806
2822.125427796791,-312.9032258064516
2823.1254722432104,-41.935483870967744
2824.1255166896303,29.03225806451613
2825.1255611360502,138.70967741935482
2826.12560558247,106.4516129032258
2827.12565002889,-306.4516129032258
2828.12569447531,-364.51612903225805
2829.12573892173,-216.12903225806448
2830.1257833681493,-90.32258064516128
2831.125827814569,12.903225806451612
2832.125872260989,87.09677419354838
2833.125916707409,96.77419354838709
2834.125961153829,87.09677419354838
2835.126005600249,80.64516129032258
2836.1260500466683,77.41935483870967
2837.126094493088,74.19354838709677
2838.126138939508,61.29032258064516
2839.126183385928,51.61290322580645
2840.126227832348,48.387096774193544
2841.126272278768,38.70967741935483
2842.1263167251877,38.70967741935483
2843.126361171607,32.25806451612903
2844.126405618027,25.806451612903224
2845.126450064447,16.129032258064516
2846.126494510867,12.903225806451612
2847.126538957287,6.451612903225806
2848.1265834037067,6.451612903225806
2849.1266278501266,3.225806451612903
2850.126672296546,16.129032258064516
2851.126716742966,45.16129032258064
2852.126761189386,38.70967741935483
2853.126805635806,16.129032258064516
2854.1268500822257,-22.58064516129032
2855.1268945286456,-64.51612903225806
2856.1269389750655,-77.41935483870967
2857.126983421485,-41.935483870967744
2858.127027867905,-25.806451612903224
2859.127072314325,-3.225806451612903
2860.1271167607447,22.58064516129032
2861.1271612071646,22.58064516129032
2862.1272056535845,32.25806451612903
2863.1272501000044,29.03225806451613
2864.127294546424,12.903225806451612
2865.1273389928438,-6.451612903225806
2866.1273834392637,-9.677419354838708
2867.1274278856836,25.806451612903224
2868.1274723321035,119.35483870967742
2869.1275167785234,187.09677419354836
2870.1275612249433,158.06451612903226
2871.1276056713627,129.03225806451613
2872.1276501177827,61.29032258064516
2873.1276945642026,-64.51612903225806
2874.1277390106225,-335.48387096774195
2875.1277834570424,-364.51612903225805
2876.1278279034623,-290.32258064516134
2877.127872349882,-199.99999999999997
2878.1279167963016,-99.99999999999999
2879.1279612427215,-12.903225806451612
2880.1280056891414,96.77419354838709
2881.1280501355614,116.12903225806453
2882.1280945819813,93.54838709677418
2883.128139028401,64.51612903225806
2884.128183474821,35.483870967741936
2885.1282279212405,9.677419354838708
2886.1282723676604,16.129032258064516
2887.1283168140803,90.32258064516128
2888.1283612605002,119.35483870967742
2889.12840570692,90.32258064516128
2890.12845015334,16.129032258064516
2891.12849459976,-58.06451612903226
2892.1285390461794,-99.99999999999999
2893.1285834925993,-87.09677419354838
2894.128627939019,-19.354838709677416
2895.128672385439,38.70967741935483
2896.128716831859,93.54838709677418
2897.128761278279,380.64516129032256
2898.128805724699,316.1290322580645
2899.1288501711183,35.483870967741936
2900.128894617538,-270.96774193548384
2901.128939063958,-322.5806451612903
2902.128983510378,-251.61290322580643
2903.129027956798,-187.09677419354836
2904.129072403218,-9.677419354838708
2905.1291168496377,45.16129032258064
2906.129161296057,0.0
2907.129205742477,-74.19354838709677
2908.129250188897,6.451612903225806
2909.129294635317,32.25806451612903
2910.129339081737,41.935483870967744
2911.1293835281567,41.935483870967744
2912.1294279745766,35.483870967741936
2913.129472420996,32.25806451612903
2914.129516867416,32.25806451612903
2915.129561313836,38.70967741935483
2916.129605760256,25.806451612903224
2917.1296502066757,25.806451612903224
2918.1296946530956,19.354838709677416
2919.1297390995155,32.25806451612903
2920.129783545935,38.70967741935483
2921.129827992355,106.4516129032258
2922.129872438775,180.64516129032256
2923.1299168851947,212.9032258064516
2924.1299613316146,264.516129032258
2925.1300057780345,187.09677419354836
2926.1300502244544,116.12903225806453
2927.130094670874,19.354838709677416
2928.1301391172938,-70.96774193548387
2929.1301835637137,-283.8709677419355
2930.1302280101336,-574.1935483870968
2931.1302724565535,-622.5806451612902
2932.1303169029734,-516.1290322580645
2933.1303613493933,-251.61290322580643
2934.1304057958127,0.0
2935.1304502422327,193.54838709677418
2936.1304946886526,270.96774193548384
2937.1305391350725,206.4516129032258
2938.1305835814924,90.32258064516128
2939.1306280279123,58.06451612903226
2940.130672474332,129.03225806451613
2941.1307169207516,209.6774193548387
2942.1307613671715,180.64516129032256
2943.1308058135915,-83.87096774193549
2944.1308502600114,-225.8064516129032
2945.1308947064313,-83.87096774193549
2946.130939152851,132.258064516129
2947.130983599271,267.7419354838709
2948.1310280456905,393.5483870967742
2949.1310724921104,412.9032258064516
2950.1311169385303,174.19354838709677
2951.1311613849502,-251.61290322580643
2952.13120583137,-425.8064516129032
2953.13125027779,-480.64516129032256
2954.1312947242095,-551.6129032258063
2955.1313391706294,-361.2903225806451
2956.1313836170493,-67.74193548387096
2957.1314280634692,96.77419354838709
2958.131472509889,151.61290322580646
2959.131516956309,129.03225806451613
2960.131561402729,80.64516129032258
2961.1316058491484,38.70967741935483
2962.1316502955683,19.354838709677416
2963.131694741988,29.03225806451613
2964.131739188408,54.83870967741935
2965.131783634828,67.74193548387096
2966.131828081248,67.74193548387096
2967.131872527668,141.93548387096774
2968.1319169740873,238.70967741935485
2969.131961420507,338.7096774193548
2970.132005866927,270.96774193548384
2971.132050313347,61.29032258064516
2972.132094759767,-190.32258064516128
2973.132139206187,-190.32258064516128
2974.1321836526067,-341.93548387096774
2975.132228099026,-341.93548387096774
2976.132272545446,-180.64516129032256
2977.132316991866,-64.51612903225806
2978.132361438286,0.0
2979.132405884706,38.70967741935483
2980.1324503311257,61.29032258064516
2981.1324947775456,64.51612903225806
2982.132539223965,58.06451612903226
2983.132583670385,58.06451612903226
2984.132628116805,45.16129032258064
2985.132672563225,38.70967741935483
2986.1327170096447,35.483870967741936
2987.1327614560646,29.03225806451613
2988.1328059024845,16.129032258064516
2989.132850348904,16.129032258064516
2990.132894795324,16.129032258064516
2991.1329392417438,16.129032258064516
2992.1329836881637,12.903225806451612
2993.1330281345836,6.451612903225806
2994.1330725810035,9.677419354838708
2995.1331170274234,3.225806451612903
2996.133161473843,6.451612903225806
2997.1332059202628,-3.225806451612903
2998.1332503666827,0.0
2999.1332948131026,-6.451612903225806
3000.1333392595225,-9.677419354838708
3001.1333837059424,-3.225806451612903
3002.1334281523623,-12.903225806451612
3003.1334725987817,-3.225806451612903
3004.1335170452016,0.0
3005.1335614916215,3.225806451612903
3006.1336059380415,0.0
3007.1336503844614,9.677419354838708
3008.1336948308813,9.677419354838708
3009.133739277301,12.903225806451612
3010.1337837237206,12.903225806451612
3011.1338281701405,-29.03225806451613
3012.1338726165604,-19.354838709677416
3013.1339170629803,77.41935483870967
3014.1339615094003,125.80645161290322
3015.13400595582,183.8709677419355
3016.13405040224,232.25806451612905
3017.1340948486595,225.8064516129032
3018.1341392950794,-35.483870967741936
3019.1341837414993,-293.54838709677415
3020.1342281879192,-396.77419354838713
3021.134272634339,-358.06451612903226
3022.134317080759,-245.16129032258064
3023.134361527179,-199.99999999999997
3024.1344059735984,-25.806451612903224
3025.1344504200183,32.25806451612903
3026.134494866438,103.2258064516129
3027.134539312858,116.12903225806453
3028.134583759278,116.12903225806453
3029.134628205698,48.387096774193544
3030.134672652118,19.354838709677416
3031.1347170985373,206.4516129032258
3032.134761544957,374.1935483870967
3033.134805991377,348.38709677419354
3034.134850437797,251.61290322580643
3035.134894884217,-93.54838709677418
3036.134939330637,-174.19354838709677
3037.1349837770567,-261.2903225806452
3038.135028223476,-296.7741935483871
3039.135072669896,-222.5806451612903
3040.135117116316,-177.41935483870967
3041.135161562736,-67.74193548387096
3042.135206009156,16.129032258064516
3043.1352504555757,-58.06451612903226
3044.1352949019956,-70.96774193548387
3045.135339348415,-22.58064516129032
3046.135383794835,77.41935483870967
3047.135428241255,77.41935483870967
3048.135472687675,51.61290322580645
3049.1355171340947,6.451612903225806
3050.1355615805146,-38.70967741935483
3051.1356060269345,6.451612903225806
3052.135650473354,-12.903225806451612
3053.135694919774,25.806451612903224
3054.135739366194,48.387096774193544
3055.1357838126137,54.83870967741935
3056.1358282590336,61.29032258064516
3057.1358727054535,51.61290322580645
3058.1359171518734,38.70967741935483
3059.135961598293,35.483870967741936
3060.1360060447128,19.354838709677416
3061.1360504911327,16.129032258064516
3062.1360949375526,-9.677419354838708
3063.1361393839725,19.354838709677416
3064.1361838303924,80.64516129032258
3065.1362282768123,61.29032258064516
3066.1362727232317,22.58064516129032
3067.1363171696516,0.0
3068.1363616160716,22.58064516129032
3069.1364060624915,9.677419354838708
3070.1364505089114,-16.129032258064516
3071.1364949553313,-38.70967741935483
3072.136539401751,-99.99999999999999
3073.1365838481706,-154.83870967741933
3074.1366282945905,-138.70967741935482
3075.1366727410104,-61.29032258064516
3076.1367171874303,3.225806451612903
3077.1367616338503,41.935483870967744
3078.13680608027,87.09677419354838
3079.1368505266896,77.41935483870967
3080.1368949731095,16.129032258064516
3081.1369394195294,9.677419354838708
3082.1369838659493,-6.451612903225806
3083.1370283123692,-12.903225806451612
3084.137072758789,-6.451612903225806
3085.137117205209,9.677419354838708
3086.1371616516285,-25.806451612903224
3087.1372060980484,-6.451612903225806
3088.1372505444683,222.5806451612903
3089.137294990888,229.0322580645161
3090.137339437308,190.32258064516128
3091.137383883728,-6.451612903225806
3092.137428330148,-167.74193548387098
3093.1374727765674,-258.06451612903226
3094.1375172229873,-274.19354838709677
3095.137561669407,-177.41935483870967
3096.137606115827,-64.51612903225806
3097.137650562247,25.806451612903224
3098.137695008667,32.25806451612903
3099.137739455087,25.806451612903224
3100.1377839015063,3.225806451612903
3101.137828347926,-6.451612903225806
3102.137872794346,9.677419354838708
3103.137917240766,38.70967741935483
3104.137961687186,51.61290322580645
3105.138006133606,25.806451612903224
3106.1380505800257,-3.225806451612903
3107.138095026445,29.03225806451613
3108.138139472865,77.41935483870967
3109.138183919285,67.74193548387096
3110.138228365705,51.61290322580645
3111.138272812125,58.06451612903226
3112.1383172585447,183.8709677419355
3113.1383617049646,287.0967741935484
3114.138406151384,183.8709677419355
3115.138450597804,-51.61290322580645
3116.138495044224,-248.38709677419354
3117.138539490644,-300.0
3118.1385839370637,-338.7096774193548
3119.1386283834836,-290.32258064516134
3120.1386728299035,-93.54838709677418
3121.138717276323,35.483870967741936
3122.138761722743,74.19354838709677
3123.1388061691628,74.19354838709677
3124.1388506155827,6.451612903225806
3125.1388950620026,-12.903225806451612
3126.1389395084225,38.70967741935483
3127.1389839548424,58.06451612903226
3128.139028401262,70.96774193548387
3129.1390728476817,70.96774193548387
3130.1391172941017,80.64516129032258
3131.1391617405216,116.12903225806453
3132.1392061869415,87.09677419354838
3133.1392506333614,16.129032258064516
3134.1392950797813,-25.806451612903224
3135.1393395262007,-103.2258064516129
3136.1393839726206,-74.19354838709677
3137.1394284190405,-70.96774193548387
3138.1394728654604,-25.806451612903224
3139.1395173118804,12.903225806451612
3140.1395617583003,38.70967741935483
3141.13960620472,64.51612903225806
3142.1396506511396,38.70967741935483
3143.1396950975595,-25.806451612903224
3144.1397395439794,-35.483870967741936
3145.1397839903993,-9.677419354838708
3146.1398284368192,3.225806451612903
3147.139872883239,3.225806451612903
3148.139917329659,9.677419354838708
3149.1399617760785,6.451612903225806
3150.1400062224984,-6.451612903225806
3151.1400506689183,32.25806451612903
3152.140095115338,109.6774193548387
3153.140139561758,190.32258064516128
3154.140184008178,116.12903225806453
3155.140228454598,6.451612903225806
3156.1402729010174,-116.12903225806453
3157.1403173474373,-174.19354838709677
3158.140361793857,-206.4516129032258
3159.140406240277,-129.03225806451613
3160.140450686697,-3.225806451612903
3161.140495133117,245.16129032258064
3162.140539579537,251.61290322580643
3163.1405840259563,164.51612903225805
3164.140628472376,-22.58064516129032
3165.140672918796,6.451612903225806
3166.140717365216,-116.12903225806453
3167.140761811636,-170.96774193548387
3168.140806258056,-238.70967741935485
3169.1408507044757,-212.9032258064516
3170.140895150895,-103.2258064516129
3171.140939597315,-154.83870967741933
3172.140984043735,-48.387096774193544
3173.141028490155,116.12903225806453
3174.141072936575,193.54838709677418
3175.1411173829947,112.9032258064516
3176.1411618294146,-29.03225806451613
3177.141206275834,-93.54838709677418
3178.141250722254,-48.387096774193544
3179.141295168674,-45.16129032258064
3180.141339615094,32.25806451612903
3181.1413840615137,70.96774193548387
3182.1414285079336,70.96774193548387
3183.1414729543535,61.29032258064516
3184.141517400773,41.935483870967744
3185.141561847193,35.483870967741936
3186.1416062936128,29.03225806451613
3187.1416507400327,19.354838709677416
3188.1416951864526,25.806451612903224
3189.1417396328725,22.58064516129032
3190.1417840792924,12.903225806451612
3191.141828525712,9.677419354838708
3192.1418729721318,6.451612903225806
3193.1419174185517,-3.225806451612903
3194.1419618649716,-3.225806451612903
3195.1420063113915,-6.451612903225806
3196.1420507578114,9.677419354838708
3197.142095204231,96.77419354838709
3198.1421396506507,119.35483870967742
3199.1421840970706,64.51612903225806
3200.1422285434905,-38.70967741935483
3201.1422729899105,-103.2258064516129
3202.1423174363304,-16.129032258064516
3203.1423618827503,190.32258064516128
3204.1424063291697,380.64516129032256
3205.1424507755896,238.70967741935485
3206.1424952220095,-103.2258064516129
3207.1425396684294,-283.8709677419355
3208.1425841148493,-235.48387096774195
3209.1426285612692,258.06451612903226
3210.142673007689,429.0322580645161
3211.1427174541086,300.0
3212.1427619005285,-12.903225806451612
3213.1428063469484,-651.6129032258063
3214.1428507933683,-1009.6774193548385
3215.1428952397882,-887.0967741935483
3216.142939686208,-419.3548387096774
3217.142984132628,3.225806451612903
3218.1430285790475,145.16129032258067
3219.1430730254674,180.64516129032256
3220.1431174718873,167.74193548387098
3221.143161918307,170.96774193548387
3222.143206364727,148.38709677419354
3223.143250811147,129.03225806451613
3224.143295257567,109.6774193548387
3225.1433397039864,99.99999999999999
3226.1433841504063,93.54838709677418
3227.143428596826,93.54838709677418
3228.143473043246,96.77419354838709
3229.143517489666,87.09677419354838
3230.143561936086,70.96774193548387
3231.143606382506,54.83870967741935
3232.1436508289253,38.70967741935483
3233.143695275345,25.806451612903224
3234.143739721765,16.129032258064516
3235.143784168185,9.677419354838708
3236.143828614605,12.903225806451612
3237.143873061025,9.677419354838708
3238.1439175074447,-3.225806451612903
3239.143961953864,-3.225806451612903
3240.144006400284,-12.903225806451612
3241.144050846704,-12.903225806451612
3242.144095293124,-22.58064516129032
3243.144139739544,-22.58064516129032
3244.1441841859637,-12.903225806451612
3245.1442286323836,-19.354838709677416
3246.144273078803,0.0
3247.144317525223,9.677419354838708
3248.144361971643,12.903225806451612
3249.1444064180628,12.903225806451612
3250.1444508644827,12.903225806451612
3251.1444953109026,29.03225806451613
3252.1445397573225,12.903225806451612
3253.144584203742,12.903225806451612
3254.144628650162,29.03225806451613
3255.1446730965818,6.451612903225806
3256.1447175430017,-25.806451612903224
3257.1447619894216,-64.51612903225806
3258.1448064358415,-64.51612903225806
3259.1448508822614,-54.83870967741935
3260.144895328681,-51.61290322580645
3261.1449397751007,-9.677419354838708
3262.1449842215206,6.451612903225806
3263.1450286679406,0.0
3264.1450731143605,9.677419354838708
3265.1451175607804,0.0
3266.1451620072003,0.0
3267.1452064536197,9.677419354838708
3268.1452509000396,12.903225806451612
3269.1452953464595,29.03225806451613
3270.1453397928794,29.03225806451613
3271.1453842392993,32.25806451612903
3272.1454286857193,9.677419354838708
3273.145473132139,64.51612903225806
3274.1455175785586,119.35483870967742
3275.1455620249785,106.4516129032258
3276.1456064713984,19.354838709677416
3277.1456509178183,-64.51612903225806
3278.1456953642382,-170.96774193548387
3279.145739810658,-170.96774193548387
3280.145784257078,-112.9032258064516
3281.1458287034975,-22.58064516129032
3282.1458731499174,3.225806451612903
3283.1459175963373,-3.225806451612903
3284.145962042757,-29.03225806451613
3285.146006489177,-58.06451612903226
3286.146050935597,-38.70967741935483
3287.146095382017,12.903225806451612
3288.1461398284364,38.70967741935483
3289.1461842748563,54.83870967741935
3290.146228721276,45.16129032258064
3291.146273167696,25.806451612903224
3292.146317614116,29.03225806451613
3293.146362060536,12.903225806451612
3294.146406506956,12.903225806451612
3295.1464509533753,12.903225806451612
3296.146495399795,12.903225806451612
3297.146539846215,25.806451612903224
3298.146584292635,38.70967741935483
3299.146628739055,38.70967741935483
3300.146673185475,103.2258064516129
3301.1467176318947,354.83870967741933
3302.146762078314,245.16129032258064
3303.146806524734,-22.58064516129032
3304.146850971154,-296.7741935483871
3305.146895417574,-251.61290322580643
3306.146939863994,-87.09677419354838
3307.1469843104137,-67.74193548387096
3308.1470287568336,-99.99999999999999
3309.147073203253,-87.09677419354838
3310.147117649673,-125.80645161290322
3311.147162096093,-106.4516129032258
3312.147206542513,-6.451612903225806
3313.1472509889327,70.96774193548387
3314.1472954353526,61.29032258064516
3315.147339881772,29.03225806451613
3316.147384328192,-25.806451612903224
3317.147428774612,22.58064516129032
3318.1474732210318,0.0
3319.1475176674517,-35.483870967741936
3320.1475621138716,-74.19354838709677
3321.1476065602915,-12.903225806451612
3322.147651006711,61.29032258064516
3323.147695453131,138.70967741935482
3324.1477398995507,158.06451612903226
3325.1477843459706,112.9032258064516
3326.1478287923906,-38.70967741935483
3327.1478732388105,-109.6774193548387
3328.1479176852304,-174.19354838709677
3329.14796213165,-99.99999999999999
3330.1480065780697,9.677419354838708
3331.1480510244896,61.29032258064516
3332.1480954709095,54.83870967741935
3333.1481399173294,3.225806451612903
3334.1481843637494,-35.483870967741936
3335.1482288101693,-9.677419354838708
3336.1482732565887,16.129032258064516
3337.1483177030086,25.806451612903224
3338.1483621494285,64.51612903225806
3339.1484065958484,67.74193548387096
3340.1484510422683,29.03225806451613
3341.1484954886882,3.225806451612903
3342.148539935108,-25.806451612903224
3343.1485843815276,-41.935483870967744
3344.1486288279475,-45.16129032258064
3345.1486732743674,-12.903225806451612
3346.1487177207873,12.903225806451612
3347.148762167207,16.129032258064516
