timestamp,valores
0.0,0.0
1.0000724690194942,0.0
2.0001449380389884,0.0
3.0002174070584826,0.0
4.000289876077977,3.225806451612903
5.0003623450974715,0.0
6.000434814116965,-3.225806451612903
7.000507283136459,0.0
8.000579752155954,-9.677419354838708
9.000652221175448,0.0
10.000724690194943,-6.451612903225806
11.000797159214436,-6.451612903225806
12.00086962823393,-6.451612903225806
13.000942097253425,-9.677419354838708
14.001014566272918,3.225806451612903
15.001087035292413,-6.451612903225806
16.001159504311907,-3.225806451612903
17.0012319733314,-3.225806451612903
18.001304442350897,3.225806451612903
19.00137691137039,0.0
20.001449380389886,3.225806451612903
21.00152184940938,0.0
22.00159431842887,0.0
23.001666787448368,0.0
24.00173925646786,3.225806451612903
25.001811725487354,9.677419354838708
26.00188419450685,12.903225806451612
27.001956663526343,3.225806451612903
28.002029132545836,6.451612903225806
29.002101601565332,0.0
30.002174070584825,3.225806451612903
31.00224653960432,-3.225806451612903
32.002319008623815,3.225806451612903
33.00239147764331,0.0
34.0024639466628,0.0
35.0025364156823,0.0
36.00260888470179,-3.225806451612903
37.002681353721286,-3.225806451612903
38.00275382274078,-3.225806451612903
39.00282629176027,-3.225806451612903
40.00289876077977,-3.225806451612903
41.002971229799265,0.0
42.00304369881876,-9.677419354838708
43.00311616783825,-3.225806451612903
44.00318863685774,-3.225806451612903
45.003261105877236,0.0
46.003333574896736,3.225806451612903
47.00340604391623,-9.677419354838708
48.00347851293572,-6.451612903225806
49.003550981955215,-6.451612903225806
50.00362345097471,-3.225806451612903
51.00369591999421,3.225806451612903
52.0037683890137,0.0
53.00384085803319,12.903225806451612
54.003913327052686,22.58064516129032
55.00398579607218,12.903225806451612
56.00405826509167,9.677419354838708
57.00413073411117,3.225806451612903
58.004203203130665,-3.225806451612903
59.00427567215016,0.0
60.00434814116965,-6.451612903225806
61.00442061018914,-6.451612903225806
62.00449307920864,-3.225806451612903
63.004565548228136,-6.451612903225806
64.00463801724763,3.225806451612903
65.00471048626713,3.225806451612903
66.00478295528661,3.225806451612903
67.00485542430611,9.677419354838708
68.0049278933256,3.225806451612903
69.0050003623451,0.0
70.0050728313646,-6.451612903225806
71.00514530038409,-6.451612903225806
72.00521776940359,-6.451612903225806
73.00529023842307,-9.677419354838708
74.00536270744257,-6.451612903225806
75.00543517646207,0.0
76.00550764548156,9.677419354838708
77.00558011450106,3.225806451612903
78.00565258352054,0.0
79.00572505254004,9.677419354838708
80.00579752155954,0.0
81.00586999057903,0.0
82.00594245959853,3.225806451612903
83.00601492861801,0.0
84.00608739763751,3.225806451612903
85.006159866657,3.225806451612903
86.0062323356765,3.225806451612903
87.006304804696,0.0
88.00637727371549,3.225806451612903
89.00644974273499,3.225806451612903
90.00652221175447,-6.451612903225806
91.00659468077397,0.0
92.00666714979347,-3.225806451612903
93.00673961881296,3.225806451612903
94.00681208783246,6.451612903225806
95.00688455685194,-6.451612903225806
96.00695702587144,-6.451612903225806
97.00702949489094,-6.451612903225806
98.00710196391043,0.0
99.00717443292993,3.225806451612903
100.00724690194942,-3.225806451612903
101.00731937096891,-3.225806451612903
102.00739183998841,-6.451612903225806
103.0074643090079,0.0
104.0075367780274,3.225806451612903
105.00760924704689,0.0
106.00768171606639,6.451612903225806
107.00775418508589,3.225806451612903
108.00782665410537,-6.451612903225806
109.00789912312487,3.225806451612903
110.00797159214436,0.0
111.00804406116386,0.0
112.00811653018334,0.0
113.00818899920284,0.0
114.00826146822234,6.451612903225806
115.00833393724183,-6.451612903225806
116.00840640626133,3.225806451612903
117.00847887528082,-6.451612903225806
118.00855134430032,0.0
119.00862381331982,6.451612903225806
120.0086962823393,0.0
121.0087687513588,-3.225806451612903
122.00884122037829,0.0
123.00891368939779,0.0
124.00898615841729,6.451612903225806
125.00905862743677,6.451612903225806
126.00913109645627,12.903225806451612
127.00920356547576,3.225806451612903
128.00927603449526,-6.451612903225806
129.00934850351476,-3.225806451612903
130.00942097253426,-6.451612903225806
131.00949344155373,-3.225806451612903
132.00956591057323,3.225806451612903
133.00963837959273,3.225806451612903
134.00971084861223,6.451612903225806
135.00978331763173,6.451612903225806
136.0098557866512,3.225806451612903
137.0099282556707,-6.451612903225806
138.0100007246902,-9.677419354838708
139.0100731937097,-3.225806451612903
140.0101456627292,-9.677419354838708
141.01021813174867,-6.451612903225806
142.01029060076817,6.451612903225806
143.01036306978767,9.677419354838708
144.01043553880717,12.903225806451612
145.01050800782667,3.225806451612903
146.01058047684614,6.451612903225806
147.01065294586564,9.677419354838708
148.01072541488514,0.0
149.01079788390464,-6.451612903225806
150.01087035292414,-3.225806451612903
151.01094282194362,-6.451612903225806
152.01101529096312,-6.451612903225806
153.01108775998262,-12.903225806451612
154.01116022900212,3.225806451612903
155.01123269802162,-9.677419354838708
156.0113051670411,-6.451612903225806
157.0113776360606,0.0
158.0114501050801,9.677419354838708
159.0115225740996,3.225806451612903
160.0115950431191,3.225806451612903
161.01166751213856,9.677419354838708
162.01173998115806,6.451612903225806
163.01181245017756,9.677419354838708
164.01188491919706,6.451612903225806
165.01195738821653,0.0
166.01202985723603,-3.225806451612903
167.01210232625553,0.0
168.01217479527503,-9.677419354838708
169.01224726429453,-6.451612903225806
170.012319733314,-12.903225806451612
171.0123922023335,3.225806451612903
172.012464671353,3.225806451612903
173.0125371403725,3.225806451612903
174.012609609392,6.451612903225806
175.01268207841147,3.225806451612903
176.01275454743097,-3.225806451612903
177.01282701645047,-6.451612903225806
178.01289948546997,3.225806451612903
179.01297195448947,3.225806451612903
180.01304442350894,-6.451612903225806
181.01311689252844,3.225806451612903
182.01318936154794,6.451612903225806
183.01326183056744,0.0
184.01333429958694,0.0
185.01340676860642,-3.225806451612903
186.01347923762592,-3.225806451612903
187.01355170664542,-3.225806451612903
188.01362417566492,3.225806451612903
189.01369664468442,-3.225806451612903
190.0137691137039,-6.451612903225806
191.0138415827234,3.225806451612903
192.0139140517429,-3.225806451612903
193.0139865207624,0.0
194.0140589897819,3.225806451612903
195.01413145880136,0.0
196.01420392782086,-3.225806451612903
197.01427639684036,3.225806451612903
198.01434886585986,3.225806451612903
199.01442133487936,3.225806451612903
200.01449380389883,3.225806451612903
201.01456627291833,6.451612903225806
202.01463874193783,3.225806451612903
203.01471121095733,-3.225806451612903
204.01478367997683,-3.225806451612903
205.0148561489963,-3.225806451612903
206.0149286180158,0.0
207.0150010870353,3.225806451612903
208.0150735560548,-6.451612903225806
209.0151460250743,3.225806451612903
210.01521849409377,-6.451612903225806
211.01529096311327,0.0
212.01536343213277,-6.451612903225806
213.01543590115227,6.451612903225806
214.01550837017177,0.0
215.01558083919124,3.225806451612903
216.01565330821074,0.0
217.01572577723024,0.0
218.01579824624974,3.225806451612903
219.01587071526924,9.677419354838708
220.01594318428872,9.677419354838708
221.01601565330822,6.451612903225806
222.01608812232772,3.225806451612903
223.01616059134722,-3.225806451612903
224.0162330603667,-3.225806451612903
225.0163055293862,-6.451612903225806
226.0163779984057,-9.677419354838708
227.0164504674252,-9.677419354838708
228.0165229364447,-3.225806451612903
229.01659540546416,6.451612903225806
230.01666787448366,9.677419354838708
231.01674034350316,9.677419354838708
232.01681281252266,0.0
233.01688528154216,0.0
234.01695775056163,-6.451612903225806
235.01703021958113,0.0
236.01710268860063,-3.225806451612903
237.01717515762013,-3.225806451612903
238.01724762663963,0.0
239.0173200956591,-6.451612903225806
240.0173925646786,6.451612903225806
241.0174650336981,0.0
242.0175375027176,-3.225806451612903
243.0176099717371,-3.225806451612903
244.01768244075657,0.0
245.01775490977607,3.225806451612903
246.01782737879557,-6.451612903225806
247.01789984781507,-3.225806451612903
248.01797231683457,3.225806451612903
249.01804478585404,3.225806451612903
250.01811725487354,6.451612903225806
251.01818972389304,6.451612903225806
252.01826219291254,3.225806451612903
253.01833466193204,3.225806451612903
254.01840713095152,0.0
255.01847959997102,-3.225806451612903
256.0185520689905,0.0
257.01862453801,-9.677419354838708
258.0186970070295,0.0
259.018769476049,12.903225806451612
260.0188419450685,0.0
261.018914414088,3.225806451612903
262.01898688310746,0.0
263.019059352127,-6.451612903225806
264.01913182114646,-3.225806451612903
265.019204290166,-6.451612903225806
266.01927675918546,0.0
267.01934922820493,0.0
268.01942169722446,0.0
269.01949416624393,0.0
270.01956663526346,-6.451612903225806
271.01963910428293,0.0
272.0197115733024,-9.677419354838708
273.01978404232193,-6.451612903225806
274.0198565113414,-3.225806451612903
275.01992898036093,0.0
276.0200014493804,3.225806451612903
277.0200739183999,0.0
278.0201463874194,0.0
279.0202188564389,12.903225806451612
280.0202913254584,-3.225806451612903
281.0203637944779,0.0
282.02043626349734,-3.225806451612903
283.0205087325169,3.225806451612903
284.02058120153634,0.0
285.0206536705559,6.451612903225806
286.02072613957534,6.451612903225806
287.0207986085948,0.0
288.02087107761434,-9.677419354838708
289.0209435466338,0.0
290.02101601565334,-6.451612903225806
291.0210884846728,3.225806451612903
292.0211609536923,3.225806451612903
293.0212334227118,0.0
294.0213058917313,3.225806451612903
295.0213783607508,0.0
296.0214508297703,0.0
297.02152329878976,6.451612903225806
298.0215957678093,0.0
299.02166823682876,-3.225806451612903
300.0217407058483,6.451612903225806
301.02181317486776,9.677419354838708
302.02188564388723,-3.225806451612903
303.02195811290676,-3.225806451612903
304.02203058192623,0.0
305.02210305094576,-6.451612903225806
306.02217551996523,-6.451612903225806
307.0222479889847,-6.451612903225806
308.02232045800423,-3.225806451612903
309.0223929270237,-3.225806451612903
310.02246539604323,-3.225806451612903
311.0225378650627,6.451612903225806
312.0226103340822,3.225806451612903
313.0226828031017,9.677419354838708
314.0227552721212,12.903225806451612
315.0228277411407,16.129032258064516
316.0229002101602,12.903225806451612
317.02297267917965,6.451612903225806
318.0230451481992,-3.225806451612903
319.02311761721865,-6.451612903225806
320.0231900862382,-16.129032258064516
321.02326255525765,0.0
322.0233350242771,0.0
323.02340749329665,3.225806451612903
324.0234799623161,3.225806451612903
325.0235524313356,-3.225806451612903
326.0236249003551,3.225806451612903
327.0236973693746,0.0
328.0237698383941,6.451612903225806
329.0238423074136,0.0
330.02391477643306,-6.451612903225806
331.0239872454526,3.225806451612903
332.02405971447206,-9.677419354838708
333.0241321834916,3.225806451612903
334.02420465251106,3.225806451612903
335.02427712153053,3.225806451612903
336.02434959055006,0.0
337.02442205956953,-3.225806451612903
338.02449452858906,3.225806451612903
339.02456699760853,3.225806451612903
340.024639466628,-6.451612903225806
341.02471193564753,3.225806451612903
342.024784404667,0.0
343.02485687368653,-6.451612903225806
344.024929342706,3.225806451612903
345.0250018117255,0.0
346.025074280745,-3.225806451612903
347.0251467497645,-3.225806451612903
348.025219218784,3.225806451612903
349.0252916878035,0.0
350.02536415682295,-6.451612903225806
351.0254366258425,-6.451612903225806
352.02550909486195,3.225806451612903
353.0255815638815,0.0
354.02565403290095,6.451612903225806
355.0257265019204,-6.451612903225806
356.02579897093995,3.225806451612903
357.0258714399594,3.225806451612903
358.02594390897895,3.225806451612903
359.0260163779984,6.451612903225806
360.0260888470179,-9.677419354838708
361.0261613160374,0.0
362.0262337850569,-3.225806451612903
363.0263062540764,0.0
364.0263787230959,0.0
365.02645119211536,-3.225806451612903
366.0265236611349,9.677419354838708
367.02659613015436,9.677419354838708
368.0266685991739,16.129032258064516
369.02674106819336,6.451612903225806
370.02681353721283,0.0
371.02688600623236,-3.225806451612903
372.02695847525183,-9.677419354838708
373.02703094427136,-6.451612903225806
374.02710341329083,3.225806451612903
375.0271758823103,3.225806451612903
376.02724835132983,3.225806451612903
377.0273208203493,-9.677419354838708
378.02739328936883,0.0
379.0274657583883,0.0
380.0275382274078,3.225806451612903
381.0276106964273,-3.225806451612903
382.0276831654468,3.225806451612903
383.0277556344663,3.225806451612903
384.0278281034858,6.451612903225806
385.02790057250525,0.0
386.0279730415248,3.225806451612903
387.02804551054425,3.225806451612903
388.0281179795638,3.225806451612903
389.02819044858325,3.225806451612903
390.0282629176027,-16.129032258064516
391.02833538662225,-9.677419354838708
392.0284078556417,-12.903225806451612
393.02848032466125,-12.903225806451612
394.0285527936807,0.0
395.0286252627002,0.0
396.0286977317197,9.677419354838708
397.0287702007392,12.903225806451612
398.0288426697587,12.903225806451612
399.0289151387782,16.129032258064516
400.02898760779766,19.354838709677416
401.0290600768172,16.129032258064516
402.02913254583666,9.677419354838708
403.0292050148562,0.0
404.02927748387566,-6.451612903225806
405.02934995289513,-3.225806451612903
406.02942242191466,-3.225806451612903
407.02949489093413,-9.677419354838708
408.02956735995366,-3.225806451612903
409.02963982897313,-3.225806451612903
410.0297122979926,-9.677419354838708
411.02978476701213,3.225806451612903
412.0298572360316,-3.225806451612903
413.02992970505113,3.225806451612903
414.0300021740706,0.0
415.0300746430901,-3.225806451612903
416.0301471121096,3.225806451612903
417.0302195811291,0.0
418.0302920501486,0.0
419.0303645191681,-3.225806451612903
420.03043698818755,-9.677419354838708
421.0305094572071,0.0
422.03058192622655,3.225806451612903
423.0306543952461,3.225806451612903
424.03072686426555,16.129032258064516
425.030799333285,3.225806451612903
426.03087180230455,-3.225806451612903
427.030944271324,-3.225806451612903
428.03101674034355,-6.451612903225806
429.031089209363,0.0
430.0311616783825,-9.677419354838708
431.031234147402,-6.451612903225806
432.0313066164215,-3.225806451612903
433.031379085441,-6.451612903225806
434.0314515544605,3.225806451612903
435.03152402347996,-9.677419354838708
436.0315964924995,-3.225806451612903
437.03166896151896,-3.225806451612903
438.0317414305385,-3.225806451612903
439.03181389955796,0.0
440.03188636857743,0.0
441.03195883759696,3.225806451612903
442.03203130661643,3.225806451612903
443.03210377563596,3.225806451612903
444.03217624465543,3.225806451612903
445.0322487136749,-3.225806451612903
446.03232118269443,3.225806451612903
447.0323936517139,0.0
448.0324661207334,3.225806451612903
449.0325385897529,-3.225806451612903
450.0326110587724,0.0
451.0326835277919,0.0
452.0327559968114,-12.903225806451612
453.03282846583085,-3.225806451612903
454.0329009348504,-3.225806451612903
455.03297340386985,0.0
456.0330458728894,-3.225806451612903
457.03311834190885,6.451612903225806
458.0331908109283,6.451612903225806
459.03326327994785,6.451612903225806
460.0333357489673,3.225806451612903
461.03340821798685,6.451612903225806
462.0334806870063,3.225806451612903
463.0335531560258,12.903225806451612
464.0336256250453,12.903225806451612
465.0336980940648,3.225806451612903
466.0337705630843,3.225806451612903
467.0338430321038,0.0
468.03391550112326,0.0
469.0339879701428,3.225806451612903
470.03406043916226,-3.225806451612903
471.0341329081818,-6.451612903225806
472.03420537720126,0.0
473.03427784622073,-9.677419354838708
474.03435031524026,0.0
475.03442278425973,-9.677419354838708
476.03449525327926,-6.451612903225806
477.03456772229873,-9.677419354838708
478.0346401913182,-9.677419354838708
479.03471266033773,0.0
480.0347851293572,-6.451612903225806
481.03485759837673,0.0
482.0349300673962,6.451612903225806
483.0350025364157,3.225806451612903
484.0350750054352,12.903225806451612
485.0351474744547,9.677419354838708
486.0352199434742,3.225806451612903
487.0352924124937,0.0
488.03536488151315,0.0
489.0354373505327,3.225806451612903
490.03550981955215,3.225806451612903
491.0355822885717,0.0
492.03565475759115,-3.225806451612903
493.0357272266106,6.451612903225806
494.03579969563015,3.225806451612903
495.0358721646496,0.0
496.03594463366915,9.677419354838708
497.0360171026886,-3.225806451612903
498.0360895717081,3.225806451612903
499.0361620407276,3.225806451612903
500.0362345097471,3.225806451612903
501.0363069787666,0.0
502.0363794477861,-3.225806451612903
503.03645191680556,-9.677419354838708
504.0365243858251,-6.451612903225806
505.03659685484456,-12.903225806451612
506.0366693238641,-6.451612903225806
507.03674179288356,-9.677419354838708
508.03681426190303,-9.677419354838708
509.03688673092256,-6.451612903225806
510.03695919994203,-6.451612903225806
511.03703166896156,9.677419354838708
512.037104137981,9.677419354838708
513.0371766070006,16.129032258064516
514.03724907602,16.129032258064516
515.0373215450395,3.225806451612903
516.037394014059,6.451612903225806
517.0374664830784,9.677419354838708
518.037538952098,-3.225806451612903
519.0376114211175,0.0
520.037683890137,0.0
521.0377563591564,-3.225806451612903
522.037828828176,-6.451612903225806
523.0379012971955,3.225806451612903
524.0379737662149,-3.225806451612903
525.0380462352344,-19.354838709677416
526.038118704254,-6.451612903225806
527.0381911732734,-9.677419354838708
528.0382636422929,-12.903225806451612
529.0383361113124,-3.225806451612903
530.038408580332,0.0
531.0384810493514,3.225806451612903
532.0385535183709,3.225806451612903
533.0386259873904,9.677419354838708
534.0386984564099,9.677419354838708
535.0387709254294,6.451612903225806
536.0388433944489,0.0
537.0389158634683,0.0
538.0389883324879,-9.677419354838708
539.0390608015074,3.225806451612903
540.0391332705269,-9.677419354838708
541.0392057395463,-6.451612903225806
542.0392782085659,0.0
543.0393506775854,6.451612903225806
544.0394231466048,12.903225806451612
545.0394956156243,9.677419354838708
546.0395680846439,6.451612903225806
547.0396405536633,-3.225806451612903
548.0397130226828,3.225806451612903
549.0397854917023,3.225806451612903
550.0398579607219,-3.225806451612903
551.0399304297413,-6.451612903225806
552.0400028987608,-6.451612903225806
553.0400753677803,-19.354838709677416
554.0401478367997,-6.451612903225806
555.0402203058193,-6.451612903225806
556.0402927748388,-6.451612903225806
557.0403652438582,-12.903225806451612
558.0404377128777,-3.225806451612903
559.0405101818973,3.225806451612903
560.0405826509168,0.0
561.0406551199362,6.451612903225806
562.0407275889557,3.225806451612903
563.0408000579753,9.677419354838708
564.0408725269947,16.129032258064516
565.0409449960142,9.677419354838708
566.0410174650337,9.677419354838708
567.0410899340532,-3.225806451612903
568.0411624030727,0.0
569.0412348720922,-3.225806451612903
570.0413073411117,-6.451612903225806
571.0413798101312,6.451612903225806
572.0414522791507,-6.451612903225806
573.0415247481702,-6.451612903225806
574.0415972171896,0.0
575.0416696862092,-9.677419354838708
576.0417421552287,0.0
577.0418146242481,0.0
578.0418870932676,3.225806451612903
579.0419595622872,0.0
580.0420320313067,3.225806451612903
581.0421045003261,3.225806451612903
582.0421769693456,3.225806451612903
583.0422494383652,-9.677419354838708
584.0423219073846,3.225806451612903
585.0423943764041,-9.677419354838708
586.0424668454236,-6.451612903225806
587.042539314443,-3.225806451612903
588.0426117834626,9.677419354838708
589.0426842524821,12.903225806451612
590.0427567215016,12.903225806451612
591.042829190521,12.903225806451612
592.0429016595406,6.451612903225806
593.0429741285601,3.225806451612903
594.0430465975795,-3.225806451612903
595.043119066599,-9.677419354838708
596.0431915356186,0.0
597.043264004638,-3.225806451612903
598.0433364736575,0.0
599.043408942677,6.451612903225806
600.0434814116966,0.0
601.043553880716,0.0
602.0436263497355,3.225806451612903
603.043698818755,-6.451612903225806
604.0437712877745,3.225806451612903
605.043843756794,-6.451612903225806
606.0439162258135,-9.677419354838708
607.0439886948329,0.0
608.0440611638525,0.0
609.044133632872,-3.225806451612903
610.0442061018915,-9.677419354838708
611.0442785709109,-3.225806451612903
612.0443510399305,3.225806451612903
613.04442350895,-3.225806451612903
614.0444959779694,3.225806451612903
615.0445684469889,3.225806451612903
616.0446409160085,9.677419354838708
617.0447133850279,3.225806451612903
618.0447858540474,-3.225806451612903
619.0448583230669,6.451612903225806
620.0449307920865,0.0
621.0450032611059,0.0
622.0450757301254,6.451612903225806
623.0451481991449,6.451612903225806
624.0452206681643,6.451612903225806
625.0452931371839,-6.451612903225806
626.0453656062034,-6.451612903225806
627.0454380752228,3.225806451612903
628.0455105442423,0.0
629.0455830132619,9.677419354838708
630.0456554822814,0.0
631.0457279513008,3.225806451612903
632.0458004203203,0.0
633.0458728893399,-6.451612903225806
634.0459453583593,0.0
635.0460178273788,-6.451612903225806
636.0460902963983,0.0
637.0461627654178,0.0
638.0462352344373,-6.451612903225806
639.0463077034568,3.225806451612903
640.0463801724763,0.0
641.0464526414958,9.677419354838708
642.0465251105153,9.677419354838708
643.0465975795348,3.225806451612903
644.0466700485542,0.0
645.0467425175738,-6.451612903225806
646.0468149865933,3.225806451612903
647.0468874556127,-3.225806451612903
648.0469599246322,-3.225806451612903
649.0470323936518,-6.451612903225806
650.0471048626712,-3.225806451612903
651.0471773316907,3.225806451612903
652.0472498007102,6.451612903225806
653.0473222697298,3.225806451612903
654.0473947387492,6.451612903225806
655.0474672077687,-9.677419354838708
656.0475396767882,3.225806451612903
657.0476121458076,0.0
658.0476846148272,3.225806451612903
659.0477570838467,9.677419354838708
660.0478295528661,-6.451612903225806
661.0479020218856,-6.451612903225806
662.0479744909052,-3.225806451612903
663.0480469599247,6.451612903225806
664.0481194289441,-6.451612903225806
665.0481918979636,-6.451612903225806
666.0482643669832,3.225806451612903
667.0483368360026,-6.451612903225806
668.0484093050221,-6.451612903225806
669.0484817740416,-9.677419354838708
670.0485542430611,-12.903225806451612
671.0486267120806,-9.677419354838708
672.0486991811001,-6.451612903225806
673.0487716501196,12.903225806451612
674.0488441191391,16.129032258064516
675.0489165881586,12.903225806451612
676.0489890571781,16.129032258064516
677.0490615261975,16.129032258064516
678.0491339952171,3.225806451612903
679.0492064642366,3.225806451612903
680.049278933256,6.451612903225806
681.0493514022755,3.225806451612903
682.0494238712951,-3.225806451612903
683.0494963403146,3.225806451612903
684.049568809334,0.0
685.0496412783535,-6.451612903225806
686.0497137473731,-3.225806451612903
687.0497862163925,0.0
688.049858685412,-3.225806451612903
689.0499311544315,-9.677419354838708
690.050003623451,-9.677419354838708
691.0500760924705,-9.677419354838708
692.05014856149,-6.451612903225806
693.0502210305095,-6.451612903225806
694.050293499529,0.0
695.0503659685485,0.0
696.050438437568,9.677419354838708
697.0505109065874,12.903225806451612
698.050583375607,12.903225806451612
699.0506558446265,9.677419354838708
700.0507283136459,0.0
701.0508007826654,0.0
702.050873251685,-3.225806451612903
703.0509457207045,3.225806451612903
704.0510181897239,-3.225806451612903
705.0510906587434,-3.225806451612903
706.051163127763,-6.451612903225806
707.0512355967824,-3.225806451612903
708.0513080658019,0.0
709.0513805348214,3.225806451612903
710.0514530038408,0.0
711.0515254728604,-3.225806451612903
712.0515979418799,0.0
713.0516704108994,0.0
714.0517428799188,6.451612903225806
715.0518153489384,0.0
716.0518878179579,3.225806451612903
717.0519602869773,0.0
718.0520327559968,6.451612903225806
719.0521052250164,-6.451612903225806
720.0521776940358,-3.225806451612903
721.0522501630553,3.225806451612903
722.0523226320748,0.0
723.0523951010944,0.0
724.0524675701138,-3.225806451612903
725.0525400391333,-6.451612903225806
726.0526125081528,-6.451612903225806
727.0526849771722,-3.225806451612903
728.0527574461918,0.0
729.0528299152113,6.451612903225806
730.0529023842307,3.225806451612903
731.0529748532502,9.677419354838708
732.0530473222698,3.225806451612903
733.0531197912893,3.225806451612903
734.0531922603087,3.225806451612903
735.0532647293282,-3.225806451612903
736.0533371983478,-9.677419354838708
737.0534096673672,-9.677419354838708
738.0534821363867,-3.225806451612903
739.0535546054062,3.225806451612903
740.0536270744257,-6.451612903225806
741.0536995434452,-3.225806451612903
742.0537720124647,-3.225806451612903
743.0538444814842,9.677419354838708
744.0539169505037,3.225806451612903
745.0539894195232,3.225806451612903
746.0540618885427,6.451612903225806
747.0541343575621,3.225806451612903
748.0542068265817,3.225806451612903
749.0542792956012,3.225806451612903
750.0543517646206,-6.451612903225806
751.0544242336401,-6.451612903225806
752.0544967026597,0.0
753.0545691716792,0.0
754.0546416406986,0.0
755.0547141097181,0.0
756.0547865787377,6.451612903225806
757.0548590477571,9.677419354838708
758.0549315167766,9.677419354838708
759.0550039857961,12.903225806451612
760.0550764548155,3.225806451612903
761.0551489238351,6.451612903225806
762.0552213928546,-3.225806451612903
763.0552938618741,0.0
764.0553663308935,0.0
765.0554387999131,-3.225806451612903
766.0555112689326,-3.225806451612903
767.055583737952,-9.677419354838708
768.0556562069715,-6.451612903225806
769.0557286759911,3.225806451612903
770.0558011450105,0.0
771.05587361403,-6.451612903225806
772.0559460830495,-6.451612903225806
773.056018552069,3.225806451612903
774.0560910210885,16.129032258064516
775.056163490108,3.225806451612903
776.0562359591275,-3.225806451612903
777.056308428147,-12.903225806451612
778.0563808971665,-9.677419354838708
779.056453366186,0.0
780.0565258352054,-9.677419354838708
781.056598304225,-6.451612903225806
782.0566707732445,0.0
783.0567432422639,3.225806451612903
784.0568157112834,9.677419354838708
785.056888180303,6.451612903225806
786.0569606493225,3.225806451612903
787.0570331183419,3.225806451612903
788.0571055873614,-3.225806451612903
789.057178056381,0.0
790.0572505254004,3.225806451612903
791.0573229944199,-3.225806451612903
792.0573954634394,-3.225806451612903
793.0574679324588,3.225806451612903
794.0575404014784,3.225806451612903
795.0576128704979,3.225806451612903
796.0576853395174,3.225806451612903
797.0577578085368,-9.677419354838708
798.0578302775564,0.0
799.0579027465759,-3.225806451612903
800.0579752155953,-12.903225806451612
801.0580476846148,-6.451612903225806
802.0581201536344,0.0
803.0581926226538,3.225806451612903
804.0582650916733,3.225806451612903
805.0583375606928,9.677419354838708
806.0584100297124,3.225806451612903
807.0584824987318,6.451612903225806
808.0585549677513,3.225806451612903
809.0586274367708,6.451612903225806
810.0586999057903,3.225806451612903
811.0587723748098,3.225806451612903
812.0588448438293,-9.677419354838708
813.0589173128487,-9.677419354838708
814.0589897818683,-6.451612903225806
815.0590622508878,-12.903225806451612
816.0591347199073,0.0
817.0592071889267,-6.451612903225806
818.0592796579463,-6.451612903225806
819.0593521269658,12.903225806451612
820.0594245959852,12.903225806451612
821.0594970650047,16.129032258064516
822.0595695340243,-6.451612903225806
823.0596420030437,-6.451612903225806
824.0597144720632,-6.451612903225806
825.0597869410827,-9.677419354838708
826.0598594101023,-6.451612903225806
827.0599318791217,9.677419354838708
828.0600043481412,6.451612903225806
829.0600768171607,12.903225806451612
830.0601492861801,6.451612903225806
831.0602217551997,6.451612903225806
832.0602942242192,0.0
833.0603666932386,3.225806451612903
834.0604391622581,3.225806451612903
835.0605116312777,-3.225806451612903
836.0605841002972,0.0
837.0606565693166,-9.677419354838708
838.0607290383361,0.0
839.0608015073557,3.225806451612903
840.0608739763751,-3.225806451612903
841.0609464453946,3.225806451612903
842.0610189144141,0.0
843.0610913834336,0.0
844.0611638524531,0.0
845.0612363214726,-9.677419354838708
846.0613087904921,-3.225806451612903
847.0613812595116,-3.225806451612903
848.0614537285311,-9.677419354838708
849.0615261975506,0.0
850.06159866657,0.0
851.0616711355896,3.225806451612903
852.0617436046091,0.0
853.0618160736285,3.225806451612903
854.061888542648,3.225806451612903
855.0619610116676,9.677419354838708
856.0620334806871,3.225806451612903
857.0621059497065,-6.451612903225806
858.062178418726,0.0
859.0622508877456,0.0
860.062323356765,-16.129032258064516
861.0623958257845,3.225806451612903
862.062468294804,-6.451612903225806
863.0625407638234,6.451612903225806
864.062613232843,19.354838709677416
865.0626857018625,6.451612903225806
866.062758170882,-6.451612903225806
867.0628306399014,-6.451612903225806
868.062903108921,-3.225806451612903
869.0629755779405,-3.225806451612903
870.0630480469599,-3.225806451612903
871.0631205159794,-3.225806451612903
872.063192984999,6.451612903225806
873.0632654540184,12.903225806451612
874.0633379230379,19.354838709677416
875.0634103920574,3.225806451612903
876.063482861077,3.225806451612903
877.0635553300964,3.225806451612903
878.0636277991159,-9.677419354838708
879.0637002681354,-3.225806451612903
880.0637727371549,-9.677419354838708
881.0638452061744,0.0
882.0639176751939,3.225806451612903
883.0639901442133,0.0
884.0640626132329,3.225806451612903
885.0641350822524,-9.677419354838708
886.0642075512719,-6.451612903225806
887.0642800202913,-6.451612903225806
888.0643524893109,0.0
889.0644249583304,3.225806451612903
890.0644974273498,6.451612903225806
891.0645698963693,3.225806451612903
892.0646423653889,3.225806451612903
893.0647148344083,3.225806451612903
894.0647873034278,6.451612903225806
895.0648597724473,3.225806451612903
896.0649322414667,0.0
897.0650047104863,-6.451612903225806
898.0650771795058,3.225806451612903
899.0651496485253,9.677419354838708
900.0652221175447,-3.225806451612903
901.0652945865643,0.0
902.0653670555838,-6.451612903225806
903.0654395246032,-9.677419354838708
904.0655119936227,-6.451612903225806
905.0655844626423,-9.677419354838708
906.0656569316617,3.225806451612903
907.0657294006812,-3.225806451612903
908.0658018697007,-9.677419354838708
909.0658743387203,0.0
910.0659468077397,3.225806451612903
911.0660192767592,12.903225806451612
912.0660917457787,22.58064516129032
913.0661642147982,9.677419354838708
914.0662366838177,9.677419354838708
915.0663091528372,0.0
916.0663816218566,6.451612903225806
917.0664540908762,-3.225806451612903
918.0665265598957,-3.225806451612903
919.0665990289152,-6.451612903225806
920.0666714979346,3.225806451612903
921.0667439669542,-6.451612903225806
922.0668164359737,-9.677419354838708
923.0668889049931,0.0
924.0669613740126,-3.225806451612903
925.0670338430322,0.0
926.0671063120516,3.225806451612903
927.0671787810711,-3.225806451612903
928.0672512500906,0.0
929.0673237191102,3.225806451612903
930.0673961881296,-6.451612903225806
931.0674686571491,-6.451612903225806
932.0675411261686,3.225806451612903
933.067613595188,3.225806451612903
934.0676860642076,6.451612903225806
935.0677585332271,0.0
936.0678310022465,3.225806451612903
937.067903471266,-9.677419354838708
938.0679759402856,0.0
939.0680484093051,9.677419354838708
940.0681208783245,-3.225806451612903
941.068193347344,0.0
942.0682658163636,-9.677419354838708
943.068338285383,0.0
944.0684107544025,-6.451612903225806
945.068483223422,-9.677419354838708
946.0685556924415,-9.677419354838708
947.068628161461,-12.903225806451612
948.0687006304805,0.0
949.0687730995,3.225806451612903
950.0688455685195,9.677419354838708
951.068918037539,12.903225806451612
952.0689905065585,6.451612903225806
953.0690629755779,3.225806451612903
954.0691354445975,12.903225806451612
955.069207913617,6.451612903225806
956.0692803826364,6.451612903225806
957.0693528516559,3.225806451612903
958.0694253206755,3.225806451612903
959.069497789695,3.225806451612903
960.0695702587144,0.0
961.0696427277339,0.0
962.0697151967535,9.677419354838708
963.0697876657729,3.225806451612903
964.0698601347924,0.0
965.0699326038119,-6.451612903225806
966.0700050728313,0.0
967.0700775418509,-6.451612903225806
968.0701500108704,-3.225806451612903
969.0702224798899,6.451612903225806
970.0702949489093,0.0
971.0703674179289,9.677419354838708
972.0704398869484,3.225806451612903
973.0705123559678,3.225806451612903
974.0705848249873,0.0
975.0706572940069,-6.451612903225806
976.0707297630263,3.225806451612903
977.0708022320458,-6.451612903225806
978.0708747010653,-6.451612903225806
979.0709471700849,-3.225806451612903
980.0710196391043,-12.903225806451612
981.0710921081238,-3.225806451612903
982.0711645771433,-16.129032258064516
983.0712370461628,-3.225806451612903
984.0713095151823,0.0
985.0713819842018,-9.677419354838708
986.0714544532212,-9.677419354838708
987.0715269222408,-6.451612903225806
988.0715993912603,0.0
989.0716718602798,-6.451612903225806
990.0717443292992,-3.225806451612903
991.0718167983188,9.677419354838708
992.0718892673383,0.0
993.0719617363577,3.225806451612903
994.0720342053772,-6.451612903225806
995.0721066743968,0.0
996.0721791434162,3.225806451612903
997.0722516124357,6.451612903225806
998.0723240814552,3.225806451612903
999.0723965504748,3.225806451612903
1000.0724690194942,-6.451612903225806
1001.0725414885137,6.451612903225806
1002.0726139575332,3.225806451612903
1003.0726864265527,9.677419354838708
1004.0727588955722,3.225806451612903
1005.0728313645917,3.225806451612903
1006.0729038336111,6.451612903225806
1007.0729763026307,-3.225806451612903
1008.0730487716502,3.225806451612903
1009.0731212406697,3.225806451612903
1010.0731937096891,-9.677419354838708
1011.0732661787086,3.225806451612903
1012.0733386477282,-3.225806451612903
1013.0734111167476,-3.225806451612903
1014.0734835857671,-9.677419354838708
1015.0735560547866,-3.225806451612903
1016.0736285238061,0.0
1017.0737009928256,3.225806451612903
1018.0737734618451,0.0
1019.0738459308646,-6.451612903225806
1020.0739183998841,-6.451612903225806
1021.0739908689036,-3.225806451612903
1022.0740633379231,-3.225806451612903
1023.0741358069425,0.0
1024.074208275962,6.451612903225806
1025.0742807449815,0.0
1026.0743532140011,0.0
1027.0744256830205,-6.451612903225806
1028.07449815204,-6.451612903225806
1029.0745706210596,0.0
1030.074643090079,-3.225806451612903
1031.0747155590984,0.0
1032.074788028118,-3.225806451612903
1033.0748604971375,-3.225806451612903
1034.074932966157,6.451612903225806
1035.0750054351765,-3.225806451612903
1036.075077904196,6.451612903225806
1037.0751503732156,12.903225806451612
1038.075222842235,12.903225806451612
1039.0752953112544,0.0
1040.075367780274,-9.677419354838708
1041.0754402492935,0.0
1042.075512718313,-3.225806451612903
1043.0755851873325,0.0
1044.075657656352,3.225806451612903
1045.0757301253714,-9.677419354838708
1046.075802594391,-6.451612903225806
1047.0758750634104,0.0
1048.0759475324298,3.225806451612903
1049.0760200014495,0.0
1050.076092470469,0.0
1051.0761649394883,3.225806451612903
1052.076237408508,3.225806451612903
1053.0763098775274,-6.451612903225806
1054.0763823465468,0.0
1055.0764548155664,3.225806451612903
1056.0765272845858,3.225806451612903
1057.0765997536055,-6.451612903225806
1058.076672222625,-3.225806451612903
1059.0767446916443,6.451612903225806
1060.076817160664,0.0
1061.0768896296834,6.451612903225806
1062.0769620987028,0.0
1063.0770345677224,3.225806451612903
1064.0771070367418,0.0
1065.0771795057613,3.225806451612903
1066.077251974781,3.225806451612903
1067.0773244438003,6.451612903225806
1068.0773969128197,3.225806451612903
1069.0774693818394,0.0
1070.0775418508588,-6.451612903225806
1071.0776143198782,-3.225806451612903
1072.0776867888978,0.0
1073.0777592579173,9.677419354838708
1074.0778317269367,19.354838709677416
1075.0779041959563,12.903225806451612
1076.0779766649757,9.677419354838708
1077.0780491339954,3.225806451612903
1078.0781216030148,0.0
1079.0781940720342,3.225806451612903
1080.0782665410538,-6.451612903225806
1081.0783390100733,3.225806451612903
1082.0784114790927,0.0
1083.0784839481123,-3.225806451612903
1084.0785564171317,-6.451612903225806
1085.0786288861511,-9.677419354838708
1086.0787013551708,3.225806451612903
1087.0787738241902,0.0
1088.0788462932096,0.0
1089.0789187622293,0.0
1090.0789912312487,-3.225806451612903
1091.079063700268,-6.451612903225806
1092.0791361692877,-6.451612903225806
1093.0792086383071,-3.225806451612903
1094.0792811073266,6.451612903225806
1095.0793535763462,-3.225806451612903
1096.0794260453656,3.225806451612903
1097.0794985143853,3.225806451612903
1098.0795709834047,3.225806451612903
1099.079643452424,6.451612903225806
1100.0797159214437,-3.225806451612903
1101.0797883904631,3.225806451612903
1102.0798608594826,9.677419354838708
1103.0799333285022,12.903225806451612
1104.0800057975216,6.451612903225806
1105.080078266541,-6.451612903225806
1106.0801507355607,0.0
1107.08022320458,-3.225806451612903
1108.0802956735995,-3.225806451612903
1109.0803681426191,3.225806451612903
1110.0804406116386,-6.451612903225806
1111.080513080658,-3.225806451612903
1112.0805855496776,0.0
1113.080658018697,0.0
1114.0807304877164,3.225806451612903
1115.080802956736,-9.677419354838708
1116.0808754257555,-3.225806451612903
1117.0809478947751,-3.225806451612903
1118.0810203637946,-3.225806451612903
1119.081092832814,6.451612903225806
1120.0811653018336,0.0
1121.081237770853,-6.451612903225806
1122.0813102398724,3.225806451612903
1123.081382708892,9.677419354838708
1124.0814551779115,0.0
1125.081527646931,0.0
1126.0816001159506,-3.225806451612903
1127.08167258497,3.225806451612903
1128.0817450539894,3.225806451612903
1129.081817523009,3.225806451612903
1130.0818899920284,-6.451612903225806
1131.0819624610479,-6.451612903225806
1132.0820349300675,-9.677419354838708
1133.082107399087,3.225806451612903
1134.0821798681063,3.225806451612903
1135.082252337126,3.225806451612903
1136.0823248061454,-3.225806451612903
1137.082397275165,-6.451612903225806
1138.0824697441844,0.0
1139.0825422132039,3.225806451612903
1140.0826146822235,3.225806451612903
1141.082687151243,6.451612903225806
1142.0827596202623,0.0
1143.082832089282,-6.451612903225806
1144.0829045583014,-3.225806451612903
1145.0829770273208,-9.677419354838708
1146.0830494963404,-3.225806451612903
1147.0831219653599,-3.225806451612903
1148.0831944343793,3.225806451612903
1149.083266903399,9.677419354838708
1150.0833393724183,0.0
1151.0834118414377,6.451612903225806
1152.0834843104574,0.0
1153.0835567794768,3.225806451612903
1154.0836292484962,0.0
1155.0837017175159,0.0
1156.0837741865353,0.0
1157.0838466555547,3.225806451612903
1158.0839191245743,-3.225806451612903
1159.0839915935937,3.225806451612903
1160.0840640626134,3.225806451612903
1161.0841365316328,3.225806451612903
1162.0842090006522,3.225806451612903
1163.0842814696719,6.451612903225806
1164.0843539386913,6.451612903225806
1165.0844264077107,-3.225806451612903
1166.0844988767303,6.451612903225806
1167.0845713457497,0.0
1168.0846438147692,0.0
1169.0847162837888,-3.225806451612903
1170.0847887528082,-12.903225806451612
1171.0848612218276,3.225806451612903
1172.0849336908473,-6.451612903225806
1173.0850061598667,3.225806451612903
1174.085078628886,6.451612903225806
1175.0851510979057,0.0
1176.0852235669252,9.677419354838708
1177.0852960359446,-6.451612903225806
1178.0853685049642,-6.451612903225806
1179.0854409739836,0.0
1180.0855134430033,-6.451612903225806
1181.0855859120227,-9.677419354838708
1182.085658381042,-9.677419354838708
1183.0857308500617,3.225806451612903
1184.0858033190812,3.225806451612903
1185.0858757881006,3.225806451612903
1186.0859482571202,-3.225806451612903
1187.0860207261396,3.225806451612903
1188.086093195159,-3.225806451612903
1189.0861656641787,-3.225806451612903
1190.086238133198,-3.225806451612903
1191.0863106022175,3.225806451612903
1192.0863830712372,3.225806451612903
1193.0864555402566,3.225806451612903
1194.086528009276,0.0
1195.0866004782956,-9.677419354838708
1196.086672947315,-3.225806451612903
1197.0867454163345,0.0
1198.086817885354,0.0
1199.0868903543735,9.677419354838708
1200.0869628233932,6.451612903225806
1201.0870352924126,6.451612903225806
1202.087107761432,3.225806451612903
1203.0871802304516,-3.225806451612903
1204.087252699471,6.451612903225806
1205.0873251684905,-3.225806451612903
1206.08739763751,0.0
1207.0874701065295,-6.451612903225806
1208.087542575549,6.451612903225806
1209.0876150445686,0.0
1210.087687513588,-9.677419354838708
1211.0877599826074,-6.451612903225806
1212.087832451627,-6.451612903225806
1213.0879049206465,-6.451612903225806
1214.0879773896659,-6.451612903225806
1215.0880498586855,-9.677419354838708
1216.088122327705,3.225806451612903
1217.0881947967243,3.225806451612903
1218.088267265744,3.225806451612903
1219.0883397347634,3.225806451612903
1220.088412203783,3.225806451612903
1221.0884846728025,9.677419354838708
1222.0885571418219,9.677419354838708
1223.0886296108415,6.451612903225806
1224.088702079861,0.0
1225.0887745488803,6.451612903225806
1226.0888470179,9.677419354838708
1227.0889194869194,3.225806451612903
1228.0889919559388,6.451612903225806
1229.0890644249585,3.225806451612903
1230.0891368939779,3.225806451612903
1231.0892093629973,0.0
1232.089281832017,0.0
1233.0893543010363,0.0
1234.0894267700558,3.225806451612903
1235.0894992390754,-6.451612903225806
1236.0895717080948,-6.451612903225806
1237.0896441771142,0.0
1238.0897166461339,-6.451612903225806
1239.0897891151533,0.0
1240.089861584173,-3.225806451612903
1241.0899340531923,-6.451612903225806
1242.0900065222118,-6.451612903225806
1243.0900789912314,-3.225806451612903
1244.0901514602508,0.0
1245.0902239292702,-3.225806451612903
1246.0902963982899,-3.225806451612903
1247.0903688673093,3.225806451612903
1248.0904413363287,9.677419354838708
1249.0905138053483,16.129032258064516
1250.0905862743678,3.225806451612903
1251.0906587433872,0.0
1252.0907312124068,-3.225806451612903
1253.0908036814262,0.0
1254.0908761504456,-3.225806451612903
1255.0909486194653,-3.225806451612903
1256.0910210884847,3.225806451612903
1257.091093557504,3.225806451612903
1258.0911660265238,3.225806451612903
1259.0912384955432,3.225806451612903
1260.0913109645628,-3.225806451612903
1261.0913834335822,3.225806451612903
1262.0914559026016,0.0
1263.0915283716213,-9.677419354838708
1264.0916008406407,3.225806451612903
1265.09167330966,0.0
1266.0917457786798,6.451612903225806
1267.0918182476992,3.225806451612903
1268.0918907167186,3.225806451612903
1269.0919631857382,-6.451612903225806
1270.0920356547576,-6.451612903225806
1271.092108123777,-3.225806451612903
1272.0921805927967,-3.225806451612903
1273.092253061816,3.225806451612903
1274.0923255308355,6.451612903225806
1275.0923979998552,-6.451612903225806
1276.0924704688746,0.0
1277.092542937894,-6.451612903225806
1278.0926154069136,-3.225806451612903
1279.092687875933,3.225806451612903
1280.0927603449527,3.225806451612903
1281.092832813972,3.225806451612903
1282.0929052829915,-3.225806451612903
1283.0929777520112,3.225806451612903
1284.0930502210306,0.0
1285.09312269005,-6.451612903225806
1286.0931951590696,-3.225806451612903
1287.093267628089,12.903225806451612
1288.0933400971085,-6.451612903225806
1289.093412566128,3.225806451612903
1290.0934850351475,-6.451612903225806
1291.093557504167,3.225806451612903
1292.0936299731866,0.0
1293.093702442206,6.451612903225806
1294.0937749112254,3.225806451612903
1295.093847380245,6.451612903225806
1296.0939198492645,0.0
1297.0939923182839,0.0
1298.0940647873035,3.225806451612903
1299.094137256323,0.0
1300.0942097253424,-6.451612903225806
1301.094282194362,3.225806451612903
1302.0943546633814,0.0
1303.094427132401,0.0
1304.0944996014205,0.0
1305.0945720704399,-12.903225806451612
1306.0946445394595,6.451612903225806
1307.094717008479,3.225806451612903
1308.0947894774984,-6.451612903225806
1309.094861946518,-3.225806451612903
1310.0949344155374,-6.451612903225806
1311.0950068845568,0.0
1312.0950793535765,3.225806451612903
1313.0951518225959,6.451612903225806
1314.0952242916153,6.451612903225806
1315.095296760635,0.0
1316.0953692296544,0.0
1317.0954416986738,-12.903225806451612
1318.0955141676934,-3.225806451612903
1319.0955866367128,3.225806451612903
1320.0956591057322,-9.677419354838708
1321.0957315747519,9.677419354838708
1322.0958040437713,9.677419354838708
1323.095876512791,0.0
1324.0959489818104,0.0
1325.0960214508298,0.0
1326.0960939198494,0.0
1327.0961663888688,3.225806451612903
1328.0962388578882,9.677419354838708
1329.0963113269079,3.225806451612903
1330.0963837959273,3.225806451612903
1331.0964562649467,3.225806451612903
1332.0965287339664,-3.225806451612903
1333.0966012029858,-6.451612903225806
1334.0966736720052,0.0
1335.0967461410248,-9.677419354838708
1336.0968186100442,-9.677419354838708
1337.0968910790637,-9.677419354838708
1338.0969635480833,0.0
1339.0970360171027,6.451612903225806
1340.0971084861221,6.451612903225806
1341.0971809551418,0.0
1342.0972534241612,0.0
1343.0973258931808,0.0
1344.0973983622002,12.903225806451612
1345.0974708312197,9.677419354838708
1346.0975433002393,9.677419354838708
1347.0976157692587,12.903225806451612
1348.0976882382781,9.677419354838708
1349.0977607072978,0.0
1350.0978331763172,-3.225806451612903
1351.0979056453366,-6.451612903225806
1352.0979781143562,-9.677419354838708
1353.0980505833757,-6.451612903225806
1354.098123052395,-3.225806451612903
1355.0981955214147,-12.903225806451612
1356.0982679904341,-16.129032258064516
1357.0983404594535,-12.903225806451612
1358.0984129284732,-3.225806451612903
1359.0984853974926,6.451612903225806
1360.098557866512,9.677419354838708
1361.0986303355317,16.129032258064516
1362.098702804551,6.451612903225806
1363.0987752735707,6.451612903225806
1364.0988477425901,6.451612903225806
1365.0989202116095,-9.677419354838708
1366.0989926806292,-12.903225806451612
1367.0990651496486,-9.677419354838708
1368.099137618668,-9.677419354838708
1369.0992100876877,-6.451612903225806
1370.099282556707,-6.451612903225806
1371.0993550257265,0.0
1372.0994274947461,-9.677419354838708
1373.0994999637655,0.0
1374.099572432785,12.903225806451612
1375.0996449018046,3.225806451612903
1376.099717370824,9.677419354838708
1377.0997898398434,0.0
1378.099862308863,0.0
1379.0999347778825,12.903225806451612
1380.100007246902,19.354838709677416
1381.1000797159215,12.903225806451612
1382.100152184941,3.225806451612903
1383.1002246539606,9.677419354838708
1384.10029712298,0.0
1385.1003695919994,-6.451612903225806
1386.100442061019,-6.451612903225806
1387.1005145300385,0.0
1388.100586999058,0.0
1389.1006594680775,3.225806451612903
1390.100731937097,-3.225806451612903
1391.1008044061164,-3.225806451612903
1392.100876875136,-3.225806451612903
1393.1009493441554,0.0
1394.1010218131748,-6.451612903225806
1395.1010942821945,3.225806451612903
1396.101166751214,0.0
1397.1012392202333,0.0
1398.101311689253,0.0
1399.1013841582724,0.0
1400.1014566272918,-3.225806451612903
1401.1015290963114,-6.451612903225806
1402.1016015653308,-6.451612903225806
1403.1016740343505,3.225806451612903
1404.10174650337,-3.225806451612903
1405.1018189723893,-3.225806451612903
1406.101891441409,0.0
1407.1019639104284,0.0
1408.1020363794478,-3.225806451612903
1409.1021088484674,6.451612903225806
1410.1021813174868,-3.225806451612903
1411.1022537865063,0.0
1412.102326255526,3.225806451612903
1413.1023987245453,6.451612903225806
1414.1024711935647,0.0
1415.1025436625844,-3.225806451612903
1416.1026161316038,-3.225806451612903
1417.1026886006232,-6.451612903225806
1418.1027610696428,-3.225806451612903
1419.1028335386623,0.0
1420.1029060076817,0.0
1421.1029784767013,3.225806451612903
1422.1030509457207,3.225806451612903
1423.1031234147401,0.0
1424.1031958837598,3.225806451612903
1425.1032683527792,6.451612903225806
1426.1033408217988,0.0
1427.1034132908183,0.0
1428.1034857598377,0.0
1429.1035582288573,0.0
1430.1036306978767,-3.225806451612903
1431.1037031668961,3.225806451612903
1432.1037756359158,3.225806451612903
1433.1038481049352,-6.451612903225806
1434.1039205739546,-6.451612903225806
1435.1039930429743,-3.225806451612903
1436.1040655119937,-3.225806451612903
1437.104137981013,-3.225806451612903
1438.1042104500327,0.0
1439.1042829190521,6.451612903225806
1440.1043553880716,-3.225806451612903
1441.1044278570912,3.225806451612903
1442.1045003261106,3.225806451612903
1443.10457279513,3.225806451612903
1444.1046452641497,3.225806451612903
1445.104717733169,-3.225806451612903
1446.1047902021887,3.225806451612903
1447.1048626712081,3.225806451612903
1448.1049351402276,6.451612903225806
1449.1050076092472,12.903225806451612
1450.1050800782666,0.0
1451.105152547286,-3.225806451612903
1452.1052250163057,0.0
1453.105297485325,-16.129032258064516
1454.1053699543445,-6.451612903225806
1455.1054424233641,-9.677419354838708
1456.1055148923836,0.0
1457.105587361403,6.451612903225806
1458.1056598304226,9.677419354838708
1459.105732299442,25.806451612903224
1460.1058047684614,12.903225806451612
1461.105877237481,6.451612903225806
1462.1059497065005,3.225806451612903
1463.10602217552,6.451612903225806
1464.1060946445396,3.225806451612903
1465.106167113559,-6.451612903225806
1466.1062395825786,-3.225806451612903
1467.106312051598,-3.225806451612903
1468.1063845206174,-16.129032258064516
1469.106456989637,-3.225806451612903
1470.1065294586565,-6.451612903225806
1471.106601927676,-6.451612903225806
1472.1066743966956,-12.903225806451612
1473.106746865715,-3.225806451612903
1474.1068193347344,-6.451612903225806
1475.106891803754,-6.451612903225806
1476.1069642727734,0.0
1477.1070367417929,6.451612903225806
1478.1071092108125,6.451612903225806
1479.107181679832,3.225806451612903
1480.1072541488513,-3.225806451612903
1481.107326617871,3.225806451612903
1482.1073990868904,16.129032258064516
1483.1074715559098,22.58064516129032
1484.1075440249294,22.58064516129032
1485.1076164939489,12.903225806451612
1486.1076889629685,0.0
1487.107761431988,-9.677419354838708
1488.1078339010073,-9.677419354838708
1489.107906370027,-9.677419354838708
1490.1079788390464,-9.677419354838708
1491.1080513080658,-9.677419354838708
1492.1081237770854,-16.129032258064516
1493.1081962461049,-6.451612903225806
1494.1082687151243,-6.451612903225806
1495.108341184144,-6.451612903225806
1496.1084136531633,-3.225806451612903
1497.1084861221827,0.0
1498.1085585912024,9.677419354838708
1499.1086310602218,19.354838709677416
1500.1087035292412,-3.225806451612903
1501.1087759982609,3.225806451612903
1502.1088484672803,-3.225806451612903
1503.1089209362997,-9.677419354838708
1504.1089934053193,0.0
1505.1090658743387,0.0
1506.1091383433584,3.225806451612903
1507.1092108123778,-3.225806451612903
1508.1092832813972,3.225806451612903
1509.1093557504169,6.451612903225806
1510.1094282194363,0.0
1511.1095006884557,-3.225806451612903
1512.1095731574753,0.0
1513.1096456264947,-3.225806451612903
1514.1097180955142,-6.451612903225806
1515.1097905645338,0.0
1516.1098630335532,0.0
1517.1099355025726,0.0
1518.1100079715923,9.677419354838708
1519.1100804406117,6.451612903225806
1520.110152909631,-3.225806451612903
1521.1102253786507,3.225806451612903
1522.1102978476702,3.225806451612903
1523.1103703166896,-3.225806451612903
1524.1104427857092,0.0
1525.1105152547286,-3.225806451612903
1526.1105877237483,0.0
1527.1106601927677,3.225806451612903
1528.110732661787,0.0
1529.1108051308067,3.225806451612903
1530.1108775998262,0.0
1531.1109500688456,-3.225806451612903
1532.1110225378652,-3.225806451612903
1533.1110950068846,-9.677419354838708
1534.111167475904,-3.225806451612903
1535.1112399449237,-9.677419354838708
1536.111312413943,-6.451612903225806
1537.1113848829625,6.451612903225806
1538.1114573519822,6.451612903225806
1539.1115298210016,6.451612903225806
1540.111602290021,6.451612903225806
1541.1116747590406,6.451612903225806
1542.11174722806,3.225806451612903
1543.1118196970795,-6.451612903225806
1544.111892166099,-3.225806451612903
1545.1119646351185,-3.225806451612903
1546.112037104138,3.225806451612903
1547.1121095731576,0.0
1548.112182042177,0.0
1549.1122545111966,6.451612903225806
1550.112326980216,0.0
1551.1123994492355,0.0
1552.112471918255,0.0
1553.1125443872745,-6.451612903225806
1554.112616856294,0.0
1555.1126893253136,-3.225806451612903
1556.112761794333,3.225806451612903
1557.1128342633524,-9.677419354838708
1558.112906732372,0.0
1559.1129792013915,-3.225806451612903
1560.1130516704109,0.0
1561.1131241394305,9.677419354838708
1562.11319660845,3.225806451612903
1563.1132690774693,6.451612903225806
1564.113341546489,3.225806451612903
1565.1134140155084,3.225806451612903
1566.1134864845278,0.0
1567.1135589535475,-3.225806451612903
1568.1136314225669,-9.677419354838708
1569.1137038915865,-9.677419354838708
1570.113776360606,-6.451612903225806
1571.1138488296253,0.0
1572.113921298645,0.0
1573.1139937676644,-6.451612903225806
1574.1140662366838,6.451612903225806
1575.1141387057035,3.225806451612903
1576.1142111747229,0.0
1577.1142836437423,9.677419354838708
1578.114356112762,-3.225806451612903
1579.1144285817813,3.225806451612903
1580.1145010508008,-6.451612903225806
1581.1145735198204,0.0
1582.1146459888398,0.0
1583.1147184578592,3.225806451612903
1584.1147909268789,0.0
1585.1148633958983,0.0
1586.1149358649177,0.0
1587.1150083339373,-6.451612903225806
1588.1150808029568,-9.677419354838708
1589.1151532719764,-6.451612903225806
1590.1152257409958,-6.451612903225806
1591.1152982100152,-6.451612903225806
1592.1153706790349,-6.451612903225806
1593.1154431480543,0.0
1594.1155156170737,3.225806451612903
1595.1155880860933,0.0
1596.1156605551128,-3.225806451612903
1597.1157330241322,0.0
1598.1158054931518,12.903225806451612
1599.1158779621712,3.225806451612903
1600.1159504311906,-16.129032258064516
1601.1160229002103,3.225806451612903
1602.1160953692297,9.677419354838708
1603.116167838249,6.451612903225806
1604.1162403072688,0.0
1605.1163127762882,9.677419354838708
1606.1163852453076,6.451612903225806
1607.1164577143272,-6.451612903225806
1608.1165301833466,-6.451612903225806
1609.1166026523663,-6.451612903225806
1610.1166751213857,-9.677419354838708
1611.116747590405,-9.677419354838708
1612.1168200594248,-3.225806451612903
1613.1168925284442,6.451612903225806
1614.1169649974636,12.903225806451612
1615.1170374664832,6.451612903225806
1616.1171099355026,6.451612903225806
1617.117182404522,6.451612903225806
1618.1172548735417,6.451612903225806
1619.117327342561,9.677419354838708
1620.1173998115805,-3.225806451612903
1621.1174722806002,-9.677419354838708
1622.1175447496196,-6.451612903225806
1623.117617218639,-6.451612903225806
1624.1176896876586,3.225806451612903
1625.117762156678,3.225806451612903
1626.1178346256975,0.0
1627.117907094717,-9.677419354838708
1628.1179795637365,3.225806451612903
1629.1180520327562,12.903225806451612
1630.1181245017756,9.677419354838708
1631.118196970795,12.903225806451612
1632.1182694398146,0.0
1633.118341908834,0.0
1634.1184143778535,-3.225806451612903
1635.118486846873,0.0
1636.1185593158925,-3.225806451612903
1637.118631784912,-9.677419354838708
1638.1187042539316,-3.225806451612903
1639.118776722951,3.225806451612903
1640.1188491919704,0.0
1641.11892166099,-9.677419354838708
1642.1189941300095,3.225806451612903
1643.1190665990289,0.0
1644.1191390680485,-6.451612903225806
1645.119211537068,-3.225806451612903
1646.1192840060874,0.0
1647.119356475107,0.0
1648.1194289441264,-6.451612903225806
1649.119501413146,3.225806451612903
1650.1195738821655,0.0
1651.1196463511849,-6.451612903225806
1652.1197188202045,-6.451612903225806
1653.119791289224,-6.451612903225806
1654.1198637582434,9.677419354838708
1655.119936227263,3.225806451612903
1656.1200086962824,3.225806451612903
1657.1200811653018,6.451612903225806
1658.1201536343215,6.451612903225806
1659.1202261033409,3.225806451612903
1660.1202985723603,-3.225806451612903
1661.12037104138,-6.451612903225806
1662.1204435103994,-9.677419354838708
1663.1205159794188,-9.677419354838708
1664.1205884484384,0.0
1665.1206609174578,-3.225806451612903
1666.1207333864772,0.0
1667.1208058554969,-3.225806451612903
1668.1208783245163,-3.225806451612903
1669.1209507935357,3.225806451612903
1670.1210232625554,3.225806451612903
1671.1210957315748,16.129032258064516
1672.1211682005944,12.903225806451612
1673.1212406696138,0.0
1674.1213131386332,3.225806451612903
1675.1213856076529,-6.451612903225806
1676.1214580766723,-3.225806451612903
1677.1215305456917,0.0
1678.1216030147114,-6.451612903225806
1679.1216754837308,-6.451612903225806
1680.1217479527502,-6.451612903225806
1681.1218204217698,-3.225806451612903
1682.1218928907892,12.903225806451612
1683.1219653598087,6.451612903225806
1684.1220378288283,3.225806451612903
1685.1221102978477,-6.451612903225806
1686.1221827668671,-6.451612903225806
1687.1222552358868,-3.225806451612903
1688.1223277049062,-3.225806451612903
1689.1224001739256,0.0
1690.1224726429452,-6.451612903225806
1691.1225451119647,-6.451612903225806
1692.1226175809843,-3.225806451612903
1693.1226900500037,3.225806451612903
1694.1227625190231,0.0
1695.1228349880428,0.0
1696.1229074570622,9.677419354838708
1697.1229799260816,-6.451612903225806
1698.1230523951012,3.225806451612903
1699.1231248641207,3.225806451612903
1700.12319733314,0.0
1701.1232698021597,9.677419354838708
1702.1233422711791,9.677419354838708
1703.1234147401985,12.903225806451612
1704.1234872092182,3.225806451612903
1705.1235596782376,-3.225806451612903
1706.123632147257,3.225806451612903
1707.1237046162767,-9.677419354838708
1708.123777085296,0.0
1709.1238495543155,-3.225806451612903
1710.1239220233351,-6.451612903225806
1711.1239944923545,-6.451612903225806
1712.1240669613742,-6.451612903225806
1713.1241394303936,-3.225806451612903
1714.124211899413,0.0
1715.1242843684327,-12.903225806451612
1716.124356837452,-6.451612903225806
1717.1244293064715,0.0
1718.1245017754911,0.0
1719.1245742445105,0.0
1720.12464671353,-6.451612903225806
1721.1247191825496,9.677419354838708
1722.124791651569,12.903225806451612
1723.1248641205884,12.903225806451612
1724.124936589608,16.129032258064516
1725.1250090586275,3.225806451612903
1726.125081527647,0.0
1727.1251539966665,-6.451612903225806
1728.125226465686,-9.677419354838708
1729.1252989347054,-3.225806451612903
1730.125371403725,-3.225806451612903
1731.1254438727444,6.451612903225806
1732.125516341764,-6.451612903225806
1733.1255888107835,-9.677419354838708
1734.125661279803,0.0
1735.1257337488225,-9.677419354838708
1736.125806217842,0.0
1737.1258786868614,-6.451612903225806
1738.125951155881,-6.451612903225806
1739.1260236249004,0.0
1740.1260960939198,6.451612903225806
1741.1261685629395,9.677419354838708
1742.126241031959,6.451612903225806
1743.1263135009783,9.677419354838708
1744.126385969998,6.451612903225806
1745.1264584390174,9.677419354838708
1746.1265309080368,9.677419354838708
1747.1266033770564,0.0
1748.1266758460758,0.0
1749.1267483150953,0.0
1750.126820784115,-9.677419354838708
1751.1268932531343,-9.677419354838708
1752.126965722154,-12.903225806451612
1753.1270381911734,0.0
1754.1271106601928,9.677419354838708
1755.1271831292124,9.677419354838708
1756.1272555982318,9.677419354838708
1757.1273280672513,3.225806451612903
1758.127400536271,0.0
1759.1274730052903,3.225806451612903
1760.1275454743097,-6.451612903225806
1761.1276179433294,0.0
1762.1276904123488,-6.451612903225806
1763.1277628813682,-12.903225806451612
1764.1278353503878,-6.451612903225806
1765.1279078194073,-6.451612903225806
1766.1279802884267,0.0
1767.1280527574463,-3.225806451612903
1768.1281252264657,0.0
1769.1281976954851,0.0
1770.1282701645048,-6.451612903225806
1771.1283426335242,6.451612903225806
1772.1284151025438,0.0
1773.1284875715633,-3.225806451612903
1774.1285600405827,3.225806451612903
1775.1286325096023,-9.677419354838708
1776.1287049786217,3.225806451612903
1777.1287774476411,3.225806451612903
1778.1288499166608,0.0
1779.1289223856802,6.451612903225806
1780.1289948546996,-3.225806451612903
1781.1290673237193,0.0
1782.1291397927387,-3.225806451612903
1783.129212261758,0.0
1784.1292847307777,3.225806451612903
1785.1293571997971,0.0
1786.1294296688166,3.225806451612903
1787.1295021378362,0.0
1788.1295746068556,-3.225806451612903
1789.129647075875,3.225806451612903
1790.1297195448947,3.225806451612903
1791.129792013914,6.451612903225806
1792.1298644829335,-3.225806451612903
1793.1299369519531,-3.225806451612903
1794.1300094209726,-3.225806451612903
1795.1300818899922,-6.451612903225806
1796.1301543590116,-3.225806451612903
1797.130226828031,-6.451612903225806
1798.1302992970507,-6.451612903225806
1799.13037176607,-6.451612903225806
1800.1304442350895,-6.451612903225806
1801.1305167041091,0.0
1802.1305891731286,-3.225806451612903
1803.130661642148,-3.225806451612903
1804.1307341111676,9.677419354838708
1805.130806580187,3.225806451612903
1806.1308790492064,6.451612903225806
1807.130951518226,3.225806451612903
1808.1310239872455,0.0
1809.131096456265,6.451612903225806
1810.1311689252846,6.451612903225806
1811.131241394304,0.0
1812.1313138633234,0.0
1813.131386332343,9.677419354838708
1814.1314588013624,-3.225806451612903
1815.131531270382,-6.451612903225806
1816.1316037394015,-3.225806451612903
1817.131676208421,-3.225806451612903
1818.1317486774406,0.0
1819.13182114646,-3.225806451612903
1820.1318936154794,3.225806451612903
1821.131966084499,9.677419354838708
1822.1320385535184,16.129032258064516
1823.1321110225379,6.451612903225806
1824.1321834915575,3.225806451612903
1825.132255960577,0.0
1826.1323284295963,0.0
1827.132400898616,-6.451612903225806
1828.1324733676354,3.225806451612903
1829.1325458366548,9.677419354838708
1830.1326183056744,0.0
1831.1326907746939,-6.451612903225806
1832.1327632437133,-3.225806451612903
1833.132835712733,-3.225806451612903
1834.1329081817523,3.225806451612903
1835.132980650772,-3.225806451612903
1836.1330531197914,-3.225806451612903
1837.1331255888108,-9.677419354838708
1838.1331980578304,-6.451612903225806
1839.1332705268499,3.225806451612903
1840.1333429958693,-6.451612903225806
1841.133415464889,-3.225806451612903
1842.1334879339083,-6.451612903225806
1843.1335604029277,-3.225806451612903
1844.1336328719474,3.225806451612903
1845.1337053409668,-3.225806451612903
1846.1337778099862,-6.451612903225806
1847.1338502790059,-6.451612903225806
1848.1339227480253,3.225806451612903
1849.1339952170447,0.0
1850.1340676860643,3.225806451612903
1851.1341401550837,3.225806451612903
1852.1342126241032,3.225806451612903
1853.1342850931228,0.0
1854.1343575621422,0.0
1855.1344300311619,-3.225806451612903
1856.1345025001813,0.0
1857.1345749692007,3.225806451612903
1858.1346474382203,3.225806451612903
1859.1347199072397,12.903225806451612
1860.1347923762592,3.225806451612903
1861.1348648452788,6.451612903225806
1862.1349373142982,3.225806451612903
1863.1350097833176,3.225806451612903
1864.1350822523373,-6.451612903225806
1865.1351547213567,-9.677419354838708
1866.135227190376,-6.451612903225806
1867.1352996593957,-6.451612903225806
1868.1353721284152,-9.677419354838708
1869.1354445974346,-9.677419354838708
1870.1355170664542,0.0
1871.1355895354736,3.225806451612903
1872.135662004493,3.225806451612903
1873.1357344735127,9.677419354838708
1874.135806942532,9.677419354838708
1875.1358794115517,3.225806451612903
1876.1359518805712,3.225806451612903
1877.1360243495906,-3.225806451612903
1878.1360968186102,0.0
1879.1361692876296,3.225806451612903
1880.136241756649,-6.451612903225806
1881.1363142256687,0.0
1882.136386694688,-3.225806451612903
1883.1364591637075,0.0
1884.1365316327272,0.0
1885.1366041017466,3.225806451612903
1886.136676570766,6.451612903225806
1887.1367490397856,3.225806451612903
1888.136821508805,3.225806451612903
1889.1368939778245,0.0
1890.136966446844,-3.225806451612903
1891.1370389158635,-9.677419354838708
1892.137111384883,-3.225806451612903
1893.1371838539026,0.0
1894.137256322922,6.451612903225806
1895.1373287919416,-3.225806451612903
1896.137401260961,3.225806451612903
1897.1374737299805,3.225806451612903
1898.137546199,3.225806451612903
1899.1376186680195,6.451612903225806
1900.137691137039,-6.451612903225806
1901.1377636060586,-3.225806451612903
1902.137836075078,3.225806451612903
1903.1379085440974,-3.225806451612903
1904.137981013117,3.225806451612903
1905.1380534821365,3.225806451612903
1906.1381259511559,0.0
1907.1381984201755,-3.225806451612903
1908.138270889195,-3.225806451612903
1909.1383433582143,3.225806451612903
1910.138415827234,-6.451612903225806
1911.1384882962534,0.0
1912.1385607652728,-9.677419354838708
1913.1386332342925,9.677419354838708
1914.1387057033119,6.451612903225806
1915.1387781723315,3.225806451612903
1916.138850641351,9.677419354838708
1917.1389231103703,16.129032258064516
1918.13899557939,19.354838709677416
1919.1390680484094,3.225806451612903
1920.1391405174288,-9.677419354838708
1921.1392129864485,-3.225806451612903
1922.1392854554679,0.0
1923.1393579244873,3.225806451612903
1924.139430393507,-3.225806451612903
1925.1395028625263,-3.225806451612903
1926.1395753315458,-6.451612903225806
1927.1396478005654,0.0
1928.1397202695848,0.0
1929.1397927386042,3.225806451612903
1930.1398652076239,-6.451612903225806
1931.1399376766433,3.225806451612903
1932.1400101456627,-3.225806451612903
1933.1400826146823,3.225806451612903
1934.1401550837018,0.0
1935.1402275527212,3.225806451612903
1936.1403000217408,0.0
1937.1403724907602,-6.451612903225806
1938.1404449597799,-6.451612903225806
1939.1405174287993,0.0
1940.1405898978187,-6.451612903225806
1941.1406623668383,3.225806451612903
1942.1407348358578,0.0
1943.1408073048772,0.0
1944.1408797738968,9.677419354838708
1945.1409522429162,9.677419354838708
1946.1410247119356,0.0
1947.1410971809553,-3.225806451612903
1948.1411696499747,-6.451612903225806
1949.1412421189941,3.225806451612903
1950.1413145880138,-6.451612903225806
1951.1413870570332,-3.225806451612903
1952.1414595260526,3.225806451612903
1953.1415319950722,3.225806451612903
1954.1416044640916,3.225806451612903
1955.141676933111,-3.225806451612903
1956.1417494021307,3.225806451612903
1957.1418218711501,0.0
1958.1418943401698,-9.677419354838708
1959.1419668091892,-3.225806451612903
1960.1420392782086,-6.451612903225806
1961.1421117472282,3.225806451612903
1962.1421842162476,-3.225806451612903
1963.142256685267,12.903225806451612
1964.1423291542867,6.451612903225806
1965.1424016233061,0.0
1966.1424740923255,-6.451612903225806
1967.1425465613452,-6.451612903225806
1968.1426190303646,-6.451612903225806
1969.142691499384,-6.451612903225806
1970.1427639684036,-6.451612903225806
1971.142836437423,0.0
1972.1429089064425,3.225806451612903
1973.142981375462,3.225806451612903
1974.1430538444815,-9.677419354838708
1975.143126313501,-3.225806451612903
1976.1431987825206,3.225806451612903
1977.14327125154,6.451612903225806
1978.1433437205596,0.0
1979.143416189579,0.0
1980.1434886585985,-6.451612903225806
1981.143561127618,-3.225806451612903
1982.1436335966375,3.225806451612903
1983.143706065657,3.225806451612903
1984.1437785346766,3.225806451612903
1985.143851003696,-6.451612903225806
1986.1439234727154,0.0
1987.143995941735,-6.451612903225806
1988.1440684107545,0.0
1989.1441408797739,6.451612903225806
1990.1442133487935,0.0
1991.144285817813,0.0
1992.1443582868324,-6.451612903225806
1993.144430755852,-9.677419354838708
1994.1445032248714,0.0
1995.1445756938908,3.225806451612903
1996.1446481629105,-3.225806451612903
1997.1447206319299,-6.451612903225806
1998.1447931009495,3.225806451612903
1999.144865569969,12.903225806451612
2000.1449380389884,6.451612903225806
2001.145010508008,-3.225806451612903
2002.1450829770274,-9.677419354838708
2003.1451554460468,-9.677419354838708
2004.1452279150665,-3.225806451612903
2005.1453003840859,-9.677419354838708
2006.1453728531053,6.451612903225806
2007.145445322125,9.677419354838708
2008.1455177911444,25.806451612903224
2009.1455902601638,35.483870967741936
2010.1456627291834,25.806451612903224
2011.1457351982028,3.225806451612903
2012.1458076672222,0.0
2013.1458801362419,-6.451612903225806
2014.1459526052613,-6.451612903225806
2015.1460250742807,-3.225806451612903
2016.1460975433004,3.225806451612903
2017.1461700123198,-6.451612903225806
2018.1462424813394,-9.677419354838708
2019.1463149503588,-6.451612903225806
2020.1463874193782,0.0
2021.1464598883979,-3.225806451612903
2022.1465323574173,6.451612903225806
2023.1466048264367,-3.225806451612903
2024.1466772954564,-3.225806451612903
2025.1467497644758,-3.225806451612903
2026.1468222334952,-3.225806451612903
2027.1468947025148,-16.129032258064516
2028.1469671715342,-12.903225806451612
2029.1470396405537,-6.451612903225806
2030.1471121095733,-9.677419354838708
2031.1471845785927,0.0
2032.1472570476121,3.225806451612903
2033.1473295166318,6.451612903225806
2034.1474019856512,3.225806451612903
2035.1474744546706,0.0
2036.1475469236902,3.225806451612903
2037.1476193927097,9.677419354838708
2038.1476918617293,6.451612903225806
2039.1477643307487,12.903225806451612
2040.1478367997681,6.451612903225806
2041.1479092687878,0.0
2042.1479817378072,-6.451612903225806
2043.1480542068266,3.225806451612903
2044.1481266758462,0.0
2045.1481991448657,0.0
2046.148271613885,3.225806451612903
2047.1483440829047,6.451612903225806
2048.148416551924,9.677419354838708
2049.1484890209435,0.0
2050.148561489963,-12.903225806451612
2051.148633958983,-6.451612903225806
2052.1487064280022,-3.225806451612903
2053.1487788970217,0.0
2054.148851366041,3.225806451612903
2055.1489238350605,-6.451612903225806
2056.14899630408,0.0
2057.1490687730998,3.225806451612903
2058.149141242119,0.0
2059.1492137111386,9.677419354838708
2060.149286180158,3.225806451612903
2061.1493586491774,3.225806451612903
2062.149431118197,0.0
2063.1495035872167,0.0
2064.149576056236,3.225806451612903
2065.1496485252555,-9.677419354838708
2066.149720994275,0.0
2067.1497934632944,-9.677419354838708
2068.149865932314,-3.225806451612903
2069.1499384013337,0.0
2070.150010870353,-9.677419354838708
2071.1500833393725,3.225806451612903
2072.150155808392,0.0
2073.1502282774113,0.0
2074.150300746431,3.225806451612903
2075.1503732154506,3.225806451612903
2076.15044568447,3.225806451612903
2077.1505181534894,0.0
2078.150590622509,-3.225806451612903
2079.1506630915283,-6.451612903225806
2080.150735560548,-6.451612903225806
2081.1508080295675,-6.451612903225806
2082.150880498587,6.451612903225806
2083.1509529676064,3.225806451612903
2084.151025436626,6.451612903225806
2085.151097905645,-3.225806451612903
2086.151170374665,-3.225806451612903
2087.1512428436845,-9.677419354838708
2088.151315312704,0.0
2089.1513877817233,3.225806451612903
2090.1514602507427,-3.225806451612903
2091.1515327197626,-3.225806451612903
2092.151605188782,-3.225806451612903
2093.1516776578014,3.225806451612903
2094.151750126821,9.677419354838708
2095.1518225958403,3.225806451612903
2096.1518950648597,6.451612903225806
2097.1519675338795,3.225806451612903
2098.152040002899,0.0
2099.1521124719184,-9.677419354838708
2100.152184940938,-9.677419354838708
2101.152257409957,-9.677419354838708
2102.1523298789766,3.225806451612903
2103.1524023479965,3.225806451612903
2104.152474817016,16.129032258064516
2105.1525472860353,22.58064516129032
2106.1526197550547,19.354838709677416
2107.152692224074,12.903225806451612
2108.1527646930936,-6.451612903225806
2109.1528371621134,-9.677419354838708
2110.152909631133,0.0
2111.1529821001523,0.0
2112.1530545691717,3.225806451612903
2113.153127038191,0.0
2114.153199507211,-3.225806451612903
2115.1532719762304,0.0
2116.15334444525,-3.225806451612903
2117.153416914269,-6.451612903225806
2118.1534893832886,6.451612903225806
2119.153561852308,3.225806451612903
2120.153634321328,-3.225806451612903
2121.1537067903473,6.451612903225806
2122.1537792593667,9.677419354838708
2123.153851728386,3.225806451612903
2124.1539241974056,0.0
2125.153996666425,3.225806451612903
2126.154069135445,3.225806451612903
2127.1541416044643,-3.225806451612903
2128.1542140734837,-6.451612903225806
2129.154286542503,-3.225806451612903
2130.1543590115225,-6.451612903225806
2131.1544314805424,3.225806451612903
2132.154503949562,-3.225806451612903
2133.154576418581,3.225806451612903
2134.1546488876006,0.0
2135.15472135662,-6.451612903225806
2136.1547938256394,9.677419354838708
2137.1548662946593,0.0
2138.1549387636787,6.451612903225806
2139.155011232698,3.225806451612903
2140.1550837017176,3.225806451612903
2141.155156170737,3.225806451612903
2142.1552286397564,-3.225806451612903
2143.1553011087763,3.225806451612903
2144.1553735777957,-6.451612903225806
2145.155446046815,3.225806451612903
2146.1555185158345,0.0
2147.155590984854,6.451612903225806
2148.1556634538733,6.451612903225806
2149.155735922893,0.0
2150.1558083919126,-6.451612903225806
2151.155880860932,-3.225806451612903
2152.1559533299514,-9.677419354838708
2153.156025798971,-12.903225806451612
2154.1560982679907,6.451612903225806
2155.15617073701,3.225806451612903
2156.1562432060296,-6.451612903225806
2157.156315675049,3.225806451612903
2158.1563881440684,9.677419354838708
2159.156460613088,6.451612903225806
2160.1565330821077,-3.225806451612903
2161.156605551127,0.0
2162.1566780201465,3.225806451612903
2163.156750489166,0.0
2164.1568229581853,12.903225806451612
2165.1568954272047,6.451612903225806
2166.1569678962246,12.903225806451612
2167.157040365244,3.225806451612903
2168.1571128342634,6.451612903225806
2169.157185303283,0.0
2170.1572577723023,-3.225806451612903
2171.157330241322,-3.225806451612903
2172.1574027103416,-3.225806451612903
2173.157475179361,0.0
2174.1575476483804,0.0
2175.1576201174,-9.677419354838708
2176.157692586419,-9.677419354838708
2177.157765055439,-9.677419354838708
2178.1578375244585,-6.451612903225806
2179.157909993478,-3.225806451612903
2180.1579824624973,-3.225806451612903
2181.1580549315167,6.451612903225806
2182.158127400536,3.225806451612903
2183.158199869556,12.903225806451612
2184.1582723385754,16.129032258064516
2185.158344807595,9.677419354838708
2186.1584172766143,-6.451612903225806
2187.1584897456337,-6.451612903225806
2188.158562214653,3.225806451612903
2189.158634683673,0.0
2190.1587071526924,0.0
2191.158779621712,-6.451612903225806
2192.158852090731,-12.903225806451612
2193.1589245597506,-3.225806451612903
2194.1589970287705,0.0
2195.15906949779,-9.677419354838708
2196.1591419668093,0.0
2197.1592144358287,0.0
2198.159286904848,0.0
2199.1593593738676,3.225806451612903
2200.1594318428874,-3.225806451612903
2201.159504311907,6.451612903225806
2202.1595767809263,-6.451612903225806
2203.1596492499457,-6.451612903225806
2204.159721718965,6.451612903225806
2205.1597941879845,9.677419354838708
2206.1598666570044,16.129032258064516
2207.159939126024,12.903225806451612
2208.160011595043,12.903225806451612
2209.1600840640626,3.225806451612903
2210.160156533082,6.451612903225806
2211.1602290021015,3.225806451612903
2212.1603014711213,-3.225806451612903
2213.1603739401407,-3.225806451612903
2214.16044640916,-3.225806451612903
2215.1605188781796,-9.677419354838708
2216.160591347199,-12.903225806451612
2217.160663816219,-12.903225806451612
2218.1607362852383,-9.677419354838708
2219.1608087542577,-6.451612903225806
2220.160881223277,-9.677419354838708
2221.1609536922965,-6.451612903225806
2222.161026161316,-3.225806451612903
2223.161098630336,0.0
2224.161171099355,3.225806451612903
2225.1612435683746,3.225806451612903
2226.161316037394,9.677419354838708
2227.1613885064135,3.225806451612903
2228.161460975433,3.225806451612903
2229.1615334444527,6.451612903225806
2230.161605913472,3.225806451612903
2231.1616783824916,6.451612903225806
2232.161750851511,-6.451612903225806
2233.1618233205304,0.0
2234.1618957895503,3.225806451612903
2235.1619682585697,0.0
2236.162040727589,0.0
2237.1621131966085,-9.677419354838708
2238.162185665628,-6.451612903225806
2239.1622581346473,-9.677419354838708
2240.162330603667,-3.225806451612903
2241.1624030726866,3.225806451612903
2242.162475541706,3.225806451612903
2243.1625480107255,9.677419354838708
2244.162620479745,3.225806451612903
2245.1626929487643,3.225806451612903
2246.162765417784,6.451612903225806
2247.1628378868036,0.0
2248.162910355823,0.0
2249.1629828248424,3.225806451612903
2250.163055293862,6.451612903225806
2251.1631277628812,3.225806451612903
2252.163200231901,6.451612903225806
2253.1632727009205,9.677419354838708
2254.16334516994,0.0
2255.1634176389593,-3.225806451612903
2256.1634901079788,-3.225806451612903
2257.1635625769986,-6.451612903225806
2258.163635046018,0.0
2259.1637075150375,3.225806451612903
2260.163779984057,0.0
2261.1638524530763,3.225806451612903
2262.1639249220957,0.0
2263.1639973911156,-3.225806451612903
2264.164069860135,0.0
2265.1641423291544,-12.903225806451612
2266.164214798174,-6.451612903225806
2267.1642872671932,0.0
2268.1643597362126,3.225806451612903
2269.1644322052325,0.0
2270.164504674252,0.0
2271.1645771432713,3.225806451612903
2272.1646496122908,-6.451612903225806
2273.16472208131,3.225806451612903
2274.16479455033,9.677419354838708
2275.1648670193495,-3.225806451612903
2276.164939488369,6.451612903225806
2277.1650119573883,6.451612903225806
2278.1650844264077,0.0
2279.165156895427,3.225806451612903
2280.165229364447,-6.451612903225806
2281.1653018334664,6.451612903225806
2282.165374302486,3.225806451612903
2283.1654467715052,0.0
2284.1655192405246,0.0
2285.165591709544,-3.225806451612903
2286.165664178564,3.225806451612903
2287.1657366475833,6.451612903225806
2288.1658091166028,3.225806451612903
2289.165881585622,9.677419354838708
2290.1659540546416,-6.451612903225806
2291.166026523661,3.225806451612903
2292.166098992681,-6.451612903225806
2293.1661714617003,-6.451612903225806
2294.1662439307197,-3.225806451612903
2295.166316399739,0.0
2296.1663888687585,0.0
2297.1664613377784,0.0
2298.166533806798,3.225806451612903
2299.1666062758172,6.451612903225806
2300.1666787448366,-6.451612903225806
2301.166751213856,-9.677419354838708
2302.1668236828755,0.0
2303.1668961518953,-3.225806451612903
2304.1669686209148,-6.451612903225806
2305.167041089934,0.0
2306.1671135589536,3.225806451612903
2307.167186027973,3.225806451612903
2308.1672584969924,12.903225806451612
2309.1673309660123,19.354838709677416
2310.1674034350317,9.677419354838708
2311.167475904051,12.903225806451612
2312.1675483730705,0.0
2313.16762084209,-3.225806451612903
2314.1676933111094,0.0
2315.1677657801292,-12.903225806451612
2316.1678382491486,-9.677419354838708
2317.167910718168,-9.677419354838708
2318.1679831871875,-12.903225806451612
2319.168055656207,0.0
2320.1681281252268,-3.225806451612903
2321.168200594246,0.0
2322.1682730632656,-3.225806451612903
2323.168345532285,0.0
2324.1684180013044,12.903225806451612
2325.168490470324,-3.225806451612903
2326.1685629393437,3.225806451612903
2327.168635408363,9.677419354838708
2328.1687078773825,-6.451612903225806
2329.168780346402,-3.225806451612903
2330.1688528154214,-3.225806451612903
2331.168925284441,0.0
2332.1689977534606,9.677419354838708
2333.16907022248,3.225806451612903
2334.1691426914995,0.0
2335.169215160519,-16.129032258064516
2336.1692876295383,-9.677419354838708
2337.169360098558,-9.677419354838708
2338.1694325675776,-6.451612903225806
2339.169505036597,0.0
2340.1695775056164,-9.677419354838708
2341.169649974636,-6.451612903225806
2342.1697224436552,-3.225806451612903
2343.169794912675,-3.225806451612903
2344.1698673816945,9.677419354838708
2345.169939850714,12.903225806451612
2346.1700123197334,22.58064516129032
2347.170084788753,12.903225806451612
2348.170157257772,0.0
2349.170229726792,6.451612903225806
2350.1703021958115,0.0
2351.170374664831,3.225806451612903
2352.1704471338503,6.451612903225806
2353.1705196028697,6.451612903225806
2354.170592071889,3.225806451612903
2355.170664540909,-6.451612903225806
2356.1707370099284,-6.451612903225806
2357.170809478948,0.0
2358.1708819479672,-6.451612903225806
2359.1709544169867,3.225806451612903
2360.1710268860065,0.0
2361.171099355026,0.0
2362.1711718240454,0.0
2363.171244293065,0.0
2364.171316762084,0.0
2365.1713892311036,-6.451612903225806
2366.1714617001235,3.225806451612903
2367.171534169143,-6.451612903225806
2368.1716066381623,3.225806451612903
2369.1716791071817,-3.225806451612903
2370.171751576201,0.0
2371.1718240452205,0.0
2372.1718965142404,0.0
2373.17196898326,-3.225806451612903
2374.1720414522792,3.225806451612903
2375.1721139212987,3.225806451612903
2376.172186390318,6.451612903225806
2377.172258859338,3.225806451612903
2378.1723313283574,3.225806451612903
2379.172403797377,6.451612903225806
2380.172476266396,3.225806451612903
2381.1725487354156,0.0
2382.172621204435,-6.451612903225806
2383.172693673455,-6.451612903225806
2384.1727661424743,3.225806451612903
2385.1728386114937,-6.451612903225806
2386.172911080513,3.225806451612903
2387.1729835495325,0.0
2388.173056018552,-3.225806451612903
2389.173128487572,0.0
2390.1732009565912,0.0
2391.1732734256107,-3.225806451612903
2392.17334589463,-9.677419354838708
2393.1734183636495,0.0
2394.173490832669,0.0
2395.173563301689,3.225806451612903
2396.173635770708,3.225806451612903
2397.1737082397276,3.225806451612903
2398.173780708747,-3.225806451612903
2399.1738531777664,-6.451612903225806
2400.1739256467863,-9.677419354838708
2401.1739981158057,-6.451612903225806
2402.174070584825,3.225806451612903
2403.1741430538445,6.451612903225806
2404.174215522864,12.903225806451612
2405.1742879918834,6.451612903225806
2406.1743604609032,9.677419354838708
2407.1744329299227,-3.225806451612903
2408.174505398942,0.0
2409.1745778679615,6.451612903225806
2410.174650336981,3.225806451612903
2411.1747228060003,3.225806451612903
2412.17479527502,6.451612903225806
2413.1748677440396,3.225806451612903
2414.174940213059,6.451612903225806
2415.1750126820784,0.0
2416.175085151098,-6.451612903225806
2417.1751576201177,-6.451612903225806
2418.175230089137,0.0
2419.1753025581565,3.225806451612903
2420.175375027176,3.225806451612903
2421.1754474961954,9.677419354838708
2422.175519965215,-3.225806451612903
2423.1755924342347,-3.225806451612903
2424.175664903254,-3.225806451612903
2425.1757373722735,-3.225806451612903
2426.175809841293,3.225806451612903
2427.1758823103123,3.225806451612903
2428.1759547793317,3.225806451612903
2429.1760272483516,0.0
2430.176099717371,-6.451612903225806
2431.1761721863904,0.0
2432.17624465541,-6.451612903225806
2433.1763171244293,-9.677419354838708
2434.1763895934487,0.0
2435.1764620624685,-9.677419354838708
2436.176534531488,0.0
2437.1766070005074,-9.677419354838708
2438.176679469527,0.0
2439.176751938546,6.451612903225806
2440.176824407566,3.225806451612903
2441.1768968765855,-3.225806451612903
2442.176969345605,9.677419354838708
2443.1770418146243,12.903225806451612
2444.1771142836437,9.677419354838708
2445.177186752663,-6.451612903225806
2446.177259221683,-6.451612903225806
2447.1773316907024,0.0
2448.177404159722,-6.451612903225806
2449.1774766287413,-6.451612903225806
2450.1775490977607,0.0
2451.17762156678,0.0
2452.1776940358,0.0
2453.1777665048194,-9.677419354838708
2454.177838973839,6.451612903225806
2455.177911442858,3.225806451612903
2456.1779839118776,-3.225806451612903
2457.178056380897,0.0
2458.178128849917,-3.225806451612903
2459.1782013189363,3.225806451612903
2460.1782737879557,6.451612903225806
2461.178346256975,9.677419354838708
2462.1784187259946,-3.225806451612903
2463.1784911950144,3.225806451612903
2464.178563664034,3.225806451612903
2465.1786361330533,-3.225806451612903
2466.1787086020727,-3.225806451612903
2467.178781071092,3.225806451612903
2468.1788535401115,-3.225806451612903
2469.1789260091314,0.0
2470.178998478151,-6.451612903225806
2471.17907094717,-3.225806451612903
2472.1791434161896,-3.225806451612903
2473.179215885209,0.0
2474.1792883542284,6.451612903225806
2475.1793608232483,0.0
2476.1794332922677,-6.451612903225806
2477.179505761287,-3.225806451612903
2478.1795782303066,-3.225806451612903
2479.179650699326,0.0
2480.179723168346,-3.225806451612903
2481.1797956373653,-6.451612903225806
2482.1798681063847,-3.225806451612903
2483.179940575404,0.0
2484.1800130444235,16.129032258064516
2485.180085513443,12.903225806451612
2486.180157982463,12.903225806451612
2487.180230451482,12.903225806451612
2488.1803029205016,12.903225806451612
2489.180375389521,3.225806451612903
2490.1804478585404,-3.225806451612903
2491.18052032756,-9.677419354838708
2492.1805927965797,-6.451612903225806
2493.180665265599,0.0
2494.1807377346186,0.0
2495.180810203638,-6.451612903225806
2496.1808826726574,3.225806451612903
2497.180955141677,3.225806451612903
2498.1810276106967,3.225806451612903
2499.181100079716,6.451612903225806
2500.1811725487355,3.225806451612903
2501.181245017755,6.451612903225806
2502.1813174867743,-3.225806451612903
2503.181389955794,0.0
2504.1814624248136,3.225806451612903
2505.181534893833,3.225806451612903
2506.1816073628524,3.225806451612903
2507.181679831872,-9.677419354838708
2508.1817523008913,-6.451612903225806
2509.181824769911,-6.451612903225806
2510.1818972389306,-6.451612903225806
2511.18196970795,6.451612903225806
2512.1820421769694,0.0
2513.182114645989,12.903225806451612
2514.182187115008,3.225806451612903
2515.182259584028,3.225806451612903
2516.1823320530475,-3.225806451612903
2517.182404522067,6.451612903225806
2518.1824769910863,3.225806451612903
2519.1825494601057,3.225806451612903
2520.1826219291256,6.451612903225806
2521.182694398145,-6.451612903225806
2522.1827668671644,6.451612903225806
2523.182839336184,-3.225806451612903
2524.1829118052033,-6.451612903225806
2525.1829842742227,-6.451612903225806
2526.1830567432426,0.0
2527.183129212262,-6.451612903225806
2528.1832016812814,-3.225806451612903
2529.183274150301,-6.451612903225806
2530.18334661932,0.0
2531.1834190883396,0.0
2532.1834915573595,3.225806451612903
2533.183564026379,0.0
2534.1836364953983,-3.225806451612903
2535.1837089644177,0.0
2536.183781433437,3.225806451612903
2537.1838539024566,3.225806451612903
2538.1839263714764,0.0
2539.183998840496,6.451612903225806
2540.1840713095153,0.0
2541.1841437785347,3.225806451612903
2542.184216247554,0.0
2543.184288716574,3.225806451612903
2544.1843611855934,3.225806451612903
2545.184433654613,3.225806451612903
2546.184506123632,3.225806451612903
2547.1845785926516,3.225806451612903
2548.184651061671,0.0
2549.184723530691,0.0
2550.1847959997103,-6.451612903225806
2551.1848684687297,0.0
2552.184940937749,0.0
2553.1850134067686,-6.451612903225806
2554.185085875788,-6.451612903225806
2555.185158344808,-9.677419354838708
2556.1852308138273,-3.225806451612903
2557.1853032828467,-16.129032258064516
2558.185375751866,-12.903225806451612
2559.1854482208855,9.677419354838708
2560.1855206899054,16.129032258064516
2561.185593158925,19.354838709677416
2562.185665627944,12.903225806451612
2563.1857380969636,6.451612903225806
2564.185810565983,3.225806451612903
2565.1858830350025,3.225806451612903
2566.1859555040223,-6.451612903225806
2567.1860279730417,3.225806451612903
2568.186100442061,-9.677419354838708
2569.1861729110806,-3.225806451612903
2570.1862453801,-9.677419354838708
2571.1863178491194,-3.225806451612903
2572.1863903181393,-9.677419354838708
2573.1864627871587,0.0
2574.186535256178,0.0
2575.1866077251975,3.225806451612903
2576.186680194217,3.225806451612903
2577.1867526632363,9.677419354838708
2578.186825132256,6.451612903225806
2579.1868976012756,0.0
2580.186970070295,-6.451612903225806
2581.1870425393145,0.0
2582.187115008334,0.0
2583.1871874773537,3.225806451612903
2584.187259946373,0.0
2585.1873324153926,0.0
2586.187404884412,12.903225806451612
2587.1874773534314,0.0
2588.187549822451,-9.677419354838708
2589.1876222914707,-9.677419354838708
2590.18769476049,-6.451612903225806
2591.1877672295095,0.0
2592.187839698529,-6.451612903225806
2593.1879121675483,3.225806451612903
2594.1879846365678,12.903225806451612
2595.1880571055876,9.677419354838708
2596.188129574607,6.451612903225806
2597.1882020436265,3.225806451612903
2598.188274512646,0.0
2599.1883469816653,3.225806451612903
2600.1884194506847,0.0
2601.1884919197046,3.225806451612903
2602.188564388724,0.0
2603.1886368577434,-3.225806451612903
2604.188709326763,3.225806451612903
2605.1887817957822,-6.451612903225806
2606.188854264802,-6.451612903225806
2607.1889267338215,-3.225806451612903
2608.188999202841,0.0
2609.1890716718603,3.225806451612903
2610.1891441408798,-3.225806451612903
2611.189216609899,3.225806451612903
2612.189289078919,-6.451612903225806
2613.1893615479385,-3.225806451612903
2614.189434016958,0.0
2615.1895064859773,0.0
2616.1895789549967,3.225806451612903
2617.189651424016,0.0
2618.189723893036,6.451612903225806
2619.1897963620554,16.129032258064516
2620.189868831075,12.903225806451612
2621.1899413000942,12.903225806451612
2622.1900137691136,12.903225806451612
2623.1900862381335,0.0
2624.190158707153,-9.677419354838708
2625.1902311761723,-12.903225806451612
2626.1903036451918,-6.451612903225806
2627.190376114211,-9.677419354838708
2628.1904485832306,0.0
2629.1905210522505,-6.451612903225806
2630.19059352127,-9.677419354838708
2631.1906659902893,-3.225806451612903
2632.1907384593087,0.0
2633.190810928328,9.677419354838708
2634.1908833973475,12.903225806451612
2635.1909558663674,6.451612903225806
2636.191028335387,6.451612903225806
2637.1911008044062,3.225806451612903
2638.1911732734256,-9.677419354838708
2639.191245742445,3.225806451612903
2640.1913182114645,3.225806451612903
2641.1913906804843,3.225806451612903
2642.1914631495038,0.0
2643.191535618523,3.225806451612903
2644.1916080875426,-3.225806451612903
2645.191680556562,-6.451612903225806
2646.191753025582,3.225806451612903
2647.1918254946013,-3.225806451612903
2648.1918979636207,-6.451612903225806
2649.19197043264,0.0
2650.1920429016595,6.451612903225806
2651.192115370679,9.677419354838708
2652.192187839699,-3.225806451612903
2653.1922603087182,0.0
2654.1923327777376,3.225806451612903
2655.192405246757,-9.677419354838708
2656.1924777157765,0.0
2657.192550184796,0.0
2658.1926226538158,0.0
2659.192695122835,12.903225806451612
2660.1927675918546,0.0
2661.192840060874,-6.451612903225806
2662.1929125298934,3.225806451612903
2663.1929849989133,-3.225806451612903
2664.1930574679327,0.0
2665.193129936952,-12.903225806451612
2666.1932024059715,-3.225806451612903
2667.193274874991,-3.225806451612903
2668.1933473440104,-3.225806451612903
2669.1934198130302,6.451612903225806
2670.1934922820496,0.0
2671.193564751069,6.451612903225806
2672.1936372200885,0.0
2673.193709689108,-3.225806451612903
2674.1937821581273,0.0
2675.193854627147,0.0
2676.1939270961666,9.677419354838708
2677.193999565186,0.0
2678.1940720342054,3.225806451612903
2679.194144503225,6.451612903225806
2680.1942169722442,9.677419354838708
2681.194289441264,3.225806451612903
2682.1943619102835,3.225806451612903
2683.194434379303,-9.677419354838708
2684.1945068483224,-9.677419354838708
2685.194579317342,-6.451612903225806
2686.1946517863616,3.225806451612903
2687.194724255381,-6.451612903225806
2688.1947967244005,-6.451612903225806
2689.19486919342,-9.677419354838708
2690.1949416624393,-6.451612903225806
2691.1950141314587,0.0
2692.1950866004786,9.677419354838708
2693.195159069498,9.677419354838708
2694.1952315385174,9.677419354838708
2695.195304007537,6.451612903225806
2696.1953764765562,9.677419354838708
2697.1954489455757,3.225806451612903
2698.1955214145955,9.677419354838708
2699.195593883615,3.225806451612903
2700.1956663526344,0.0
2701.195738821654,0.0
2702.195811290673,0.0
2703.1958837596926,-3.225806451612903
2704.1959562287125,0.0
2705.196028697732,0.0
2706.1961011667513,0.0
2707.1961736357707,0.0
2708.19624610479,-3.225806451612903
2709.19631857381,-6.451612903225806
2710.1963910428294,-9.677419354838708
2711.196463511849,-6.451612903225806
2712.1965359808682,-9.677419354838708
2713.1966084498877,-6.451612903225806
2714.196680918907,3.225806451612903
2715.196753387927,3.225806451612903
2716.1968258569464,3.225806451612903
2717.196898325966,-6.451612903225806
2718.196970794985,0.0
2719.1970432640046,-3.225806451612903
2720.197115733024,3.225806451612903
2721.197188202044,9.677419354838708
2722.1972606710633,6.451612903225806
2723.1973331400827,9.677419354838708
2724.197405609102,6.451612903225806
2725.1974780781215,6.451612903225806
2726.1975505471414,3.225806451612903
2727.197623016161,0.0
2728.1976954851802,-3.225806451612903
2729.1977679541997,0.0
2730.197840423219,-3.225806451612903
2731.1979128922385,-9.677419354838708
2732.1979853612584,-6.451612903225806
2733.198057830278,-3.225806451612903
2734.198130299297,-3.225806451612903
2735.1982027683166,0.0
2736.198275237336,0.0
2737.1983477063554,-3.225806451612903
2738.1984201753753,3.225806451612903
2739.1984926443947,6.451612903225806
2740.198565113414,3.225806451612903
2741.1986375824335,3.225806451612903
2742.198710051453,0.0
2743.1987825204724,3.225806451612903
2744.1988549894922,0.0
2745.1989274585117,-12.903225806451612
2746.198999927531,-6.451612903225806
2747.1990723965505,0.0
2748.19914486557,0.0
2749.19921733459,0.0
2750.199289803609,-3.225806451612903
2751.1993622726286,12.903225806451612
2752.199434741648,3.225806451612903
2753.1995072106674,0.0
2754.199579679687,0.0
2755.1996521487067,-6.451612903225806
2756.199724617726,0.0
2757.1997970867455,0.0
2758.199869555765,0.0
2759.1999420247844,0.0
2760.200014493804,-6.451612903225806
2761.2000869628237,9.677419354838708
2762.200159431843,9.677419354838708
2763.2002319008625,6.451612903225806
2764.200304369882,0.0
2765.2003768389013,3.225806451612903
2766.200449307921,0.0
2767.2005217769406,0.0
2768.20059424596,3.225806451612903
2769.2006667149794,3.225806451612903
2770.200739183999,3.225806451612903
2771.2008116530183,3.225806451612903
2772.200884122038,-9.677419354838708
2773.2009565910575,0.0
2774.201029060077,0.0
2775.2011015290964,0.0
2776.201173998116,-3.225806451612903
2777.201246467135,3.225806451612903
2778.201318936155,0.0
2779.2013914051745,-6.451612903225806
2780.201463874194,6.451612903225806
2781.2015363432133,6.451612903225806
2782.2016088122327,3.225806451612903
2783.201681281252,-6.451612903225806
2784.201753750272,-3.225806451612903
2785.2018262192914,-6.451612903225806
2786.201898688311,3.225806451612903
2787.2019711573303,-6.451612903225806
2788.2020436263497,-6.451612903225806
2789.2021160953695,0.0
2790.202188564389,-6.451612903225806
2791.2022610334084,-6.451612903225806
2792.202333502428,-9.677419354838708
2793.202405971447,0.0
2794.2024784404666,6.451612903225806
2795.2025509094865,0.0
2796.202623378506,3.225806451612903
2797.2026958475253,0.0
2798.2027683165447,-6.451612903225806
2799.202840785564,3.225806451612903
2800.2029132545836,0.0
2801.2029857236034,-12.903225806451612
2802.203058192623,-6.451612903225806
2803.2031306616423,-6.451612903225806
2804.2032031306617,0.0
2805.203275599681,3.225806451612903
2806.203348068701,6.451612903225806
2807.2034205377204,3.225806451612903
2808.20349300674,3.225806451612903
2809.203565475759,9.677419354838708
2810.2036379447786,6.451612903225806
2811.203710413798,3.225806451612903
2812.203782882818,3.225806451612903
2813.2038553518373,6.451612903225806
2814.2039278208567,3.225806451612903
2815.204000289876,3.225806451612903
2816.2040727588956,9.677419354838708
2817.204145227915,3.225806451612903
2818.204217696935,3.225806451612903
2819.2042901659543,-6.451612903225806
2820.2043626349737,-16.129032258064516
2821.204435103993,-9.677419354838708
2822.2045075730125,-9.677419354838708
2823.204580042032,-6.451612903225806
2824.204652511052,0.0
2825.204724980071,-3.225806451612903
2826.2047974490906,3.225806451612903
2827.20486991811,6.451612903225806
2828.2049423871294,9.677419354838708
2829.2050148561493,3.225806451612903
2830.2050873251687,6.451612903225806
2831.205159794188,9.677419354838708
2832.2052322632076,3.225806451612903
2833.205304732227,0.0
2834.2053772012464,3.225806451612903
2835.2054496702663,-3.225806451612903
2836.2055221392857,0.0
2837.205594608305,-6.451612903225806
2838.2056670773245,-9.677419354838708
2839.205739546344,-12.903225806451612
2840.2058120153633,-9.677419354838708
2841.205884484383,-6.451612903225806
2842.2059569534026,-6.451612903225806
2843.206029422422,-3.225806451612903
2844.2061018914414,3.225806451612903
2845.206174360461,0.0
2846.2062468294803,-6.451612903225806
2847.2063192985,-3.225806451612903
2848.2063917675196,3.225806451612903
2849.206464236539,12.903225806451612
2850.2065367055584,0.0
2851.206609174578,16.129032258064516
2852.2066816435977,12.903225806451612
2853.206754112617,9.677419354838708
2854.2068265816365,12.903225806451612
2855.206899050656,-3.225806451612903
2856.2069715196753,-9.677419354838708
2857.2070439886947,-9.677419354838708
2858.2071164577146,-6.451612903225806
2859.207188926734,3.225806451612903
2860.2072613957534,3.225806451612903
2861.207333864773,3.225806451612903
2862.2074063337923,-3.225806451612903
2863.2074788028117,-6.451612903225806
2864.2075512718316,-3.225806451612903
2865.207623740851,3.225806451612903
2866.2076962098704,6.451612903225806
2867.20776867889,3.225806451612903
2868.207841147909,-9.677419354838708
2869.207913616929,0.0
2870.2079860859485,-12.903225806451612
2871.208058554968,-6.451612903225806
2872.2081310239873,0.0
2873.2082034930067,0.0
2874.208275962026,0.0
2875.208348431046,3.225806451612903
2876.2084209000654,6.451612903225806
2877.208493369085,3.225806451612903
2878.2085658381043,0.0
2879.2086383071237,-3.225806451612903
2880.208710776143,-9.677419354838708
2881.208783245163,0.0
2882.2088557141824,0.0
2883.208928183202,0.0
2884.209000652221,-6.451612903225806
2885.2090731212406,6.451612903225806
2886.20914559026,3.225806451612903
2887.20921805928,0.0
2888.2092905282993,6.451612903225806
2889.2093629973187,3.225806451612903
2890.209435466338,3.225806451612903
2891.2095079353576,-3.225806451612903
2892.2095804043774,-3.225806451612903
2893.209652873397,6.451612903225806
2894.2097253424163,9.677419354838708
2895.2097978114357,-3.225806451612903
2896.209870280455,0.0
2897.2099427494745,-3.225806451612903
2898.2100152184944,-3.225806451612903
2899.210087687514,-3.225806451612903
2900.210160156533,-6.451612903225806
2901.2102326255526,-6.451612903225806
2902.210305094572,3.225806451612903
2903.2103775635915,3.225806451612903
2904.2104500326113,6.451612903225806
2905.2105225016307,0.0
2906.21059497065,3.225806451612903
2907.2106674396696,0.0
2908.210739908689,0.0
2909.210812377709,-3.225806451612903
2910.2108848467283,-3.225806451612903
2911.2109573157477,6.451612903225806
2912.211029784767,0.0
2913.2111022537865,-6.451612903225806
2914.211174722806,-3.225806451612903
2915.211247191826,-6.451612903225806
2916.211319660845,-3.225806451612903
2917.2113921298646,-3.225806451612903
2918.211464598884,0.0
2919.2115370679035,9.677419354838708
2920.211609536923,9.677419354838708
2921.2116820059427,6.451612903225806
2922.211754474962,3.225806451612903
2923.2118269439816,0.0
2924.211899413001,3.225806451612903
2925.2119718820204,-6.451612903225806
2926.21204435104,-9.677419354838708
2927.2121168200597,-9.677419354838708
2928.212189289079,-12.903225806451612
2929.2122617580985,3.225806451612903
2930.212334227118,-6.451612903225806
2931.2124066961374,3.225806451612903
2932.212479165157,6.451612903225806
2933.2125516341766,9.677419354838708
2934.212624103196,12.903225806451612
2935.2126965722155,0.0
2936.212769041235,6.451612903225806
2937.2128415102543,6.451612903225806
2938.212913979274,12.903225806451612
2939.2129864482936,9.677419354838708
2940.213058917313,0.0
2941.2131313863324,0.0
2942.213203855352,-6.451612903225806
2943.2132763243712,0.0
2944.213348793391,-12.903225806451612
2945.2134212624105,-16.129032258064516
2946.21349373143,-16.129032258064516
2947.2135662004493,-19.354838709677416
2948.2136386694688,-6.451612903225806
2949.213711138488,-6.451612903225806
2950.213783607508,-6.451612903225806
2951.2138560765275,6.451612903225806
2952.213928545547,3.225806451612903
2953.2140010145663,-3.225806451612903
2954.2140734835857,3.225806451612903
2955.2141459526056,0.0
2956.214218421625,3.225806451612903
2957.2142908906444,-6.451612903225806
2958.214363359664,0.0
2959.2144358286832,3.225806451612903
2960.2145082977027,6.451612903225806
2961.2145807667225,3.225806451612903
2962.214653235742,6.451612903225806
2963.2147257047613,12.903225806451612
2964.2147981737808,6.451612903225806
2965.2148706428,3.225806451612903
2966.2149431118196,3.225806451612903
2967.2150155808395,6.451612903225806
2968.215088049859,-9.677419354838708
2969.2151605188783,0.0
2970.2152329878977,0.0
2971.215305456917,3.225806451612903
2972.215377925937,0.0
2973.2154503949564,3.225806451612903
2974.215522863976,-6.451612903225806
2975.2155953329952,-3.225806451612903
2976.2156678020147,-6.451612903225806
2977.215740271034,-3.225806451612903
2978.215812740054,-6.451612903225806
2979.2158852090733,0.0
2980.2159576780928,0.0
2981.216030147112,-6.451612903225806
2982.2161026161316,0.0
2983.216175085151,3.225806451612903
2984.216247554171,6.451612903225806
2985.2163200231903,-3.225806451612903
2986.2163924922097,3.225806451612903
2987.216464961229,0.0
2988.2165374302485,9.677419354838708
2989.216609899268,3.225806451612903
2990.216682368288,0.0
2991.2167548373072,0.0
2992.2168273063266,3.225806451612903
2993.216899775346,-3.225806451612903
2994.2169722443655,-6.451612903225806
2995.2170447133853,-9.677419354838708
2996.2171171824048,0.0
2997.217189651424,0.0
2998.2172621204436,-6.451612903225806
2999.217334589463,0.0
3000.2174070584824,-3.225806451612903
3001.2174795275023,6.451612903225806
3002.2175519965217,3.225806451612903
3003.217624465541,9.677419354838708
3004.2176969345605,12.903225806451612
3005.21776940358,3.225806451612903
3006.2178418725994,3.225806451612903
3007.2179143416192,-3.225806451612903
3008.2179868106386,0.0
3009.218059279658,-6.451612903225806
3010.2181317486775,0.0
3011.218204217697,-6.451612903225806
3012.2182766867168,-6.451612903225806
3013.218349155736,-3.225806451612903
3014.2184216247556,3.225806451612903
3015.218494093775,0.0
3016.2185665627944,-6.451612903225806
3017.218639031814,3.225806451612903
3018.2187115008337,9.677419354838708
3019.218783969853,12.903225806451612
3020.2188564388725,6.451612903225806
3021.218928907892,9.677419354838708
3022.2190013769114,6.451612903225806
3023.219073845931,0.0
3024.2191463149506,-6.451612903225806
3025.21921878397,-9.677419354838708
3026.2192912529895,-6.451612903225806
3027.219363722009,0.0
3028.2194361910283,0.0
3029.2195086600477,-6.451612903225806
3030.2195811290676,-3.225806451612903
3031.219653598087,6.451612903225806
3032.2197260671064,0.0
3033.219798536126,12.903225806451612
3034.2198710051453,6.451612903225806
3035.219943474165,-6.451612903225806
3036.2200159431845,0.0
3037.220088412204,-3.225806451612903
3038.2201608812234,0.0
3039.220233350243,3.225806451612903
3040.220305819262,-9.677419354838708
3041.220378288282,0.0
3042.2204507573015,0.0
3043.220523226321,-3.225806451612903
3044.2205956953403,3.225806451612903
3045.2206681643597,-9.677419354838708
3046.220740633379,-6.451612903225806
3047.220813102399,-6.451612903225806
3048.2208855714184,-9.677419354838708
3049.220958040438,0.0
3050.2210305094573,-3.225806451612903
3051.2211029784767,9.677419354838708
3052.2211754474965,12.903225806451612
3053.221247916516,12.903225806451612
3054.2213203855354,6.451612903225806
3055.221392854555,6.451612903225806
3056.221465323574,12.903225806451612
3057.2215377925936,6.451612903225806
3058.2216102616135,3.225806451612903
3059.221682730633,12.903225806451612
3060.2217551996523,6.451612903225806
3061.2218276686717,0.0
3062.221900137691,0.0
3063.2219726067106,3.225806451612903
3064.2220450757304,-3.225806451612903
3065.22211754475,-9.677419354838708
3066.2221900137693,-3.225806451612903
3067.2222624827887,0.0
3068.222334951808,-9.677419354838708
3069.2224074208275,-6.451612903225806
3070.2224798898474,-6.451612903225806
3071.222552358867,6.451612903225806
3072.222624827886,-6.451612903225806
3073.2226972969056,0.0
3074.222769765925,0.0
3075.222842234945,3.225806451612903
3076.2229147039643,9.677419354838708
3077.2229871729837,0.0
3078.223059642003,3.225806451612903
3079.2231321110226,0.0
3080.223204580042,-6.451612903225806
3081.223277049062,-6.451612903225806
3082.2233495180812,-6.451612903225806
3083.2234219871007,-6.451612903225806
3084.22349445612,3.225806451612903
3085.2235669251395,0.0
3086.223639394159,-9.677419354838708
3087.223711863179,-3.225806451612903
3088.223784332198,-3.225806451612903
3089.2238568012176,6.451612903225806
3090.223929270237,0.0
3091.2240017392564,-6.451612903225806
3092.224074208276,-3.225806451612903
3093.2241466772957,0.0
3094.224219146315,0.0
3095.2242916153346,-3.225806451612903
3096.224364084354,0.0
3097.2244365533734,-3.225806451612903
3098.2245090223932,-3.225806451612903
3099.2245814914127,12.903225806451612
3100.224653960432,0.0
3101.2247264294515,0.0
3102.224798898471,-6.451612903225806
3103.2248713674903,3.225806451612903
3104.22494383651,6.451612903225806
3105.2250163055296,3.225806451612903
3106.225088774549,12.903225806451612
3107.2251612435684,9.677419354838708
3108.225233712588,3.225806451612903
3109.2253061816073,-3.225806451612903
3110.225378650627,-6.451612903225806
3111.2254511196466,-6.451612903225806
3112.225523588666,0.0
3113.2255960576854,-3.225806451612903
3114.225668526705,0.0
3115.2257409957247,-6.451612903225806
3116.225813464744,3.225806451612903
3117.2258859337635,-3.225806451612903
3118.225958402783,0.0
3119.2260308718023,6.451612903225806
3120.2261033408217,3.225806451612903
3121.2261758098416,0.0
3122.226248278861,0.0
3123.2263207478804,9.677419354838708
3124.2263932169,6.451612903225806
3125.2264656859193,0.0
3126.2265381549387,3.225806451612903
3127.2266106239585,-3.225806451612903
3128.226683092978,0.0
3129.2267555619974,3.225806451612903
3130.226828031017,6.451612903225806
3131.226900500036,6.451612903225806
3132.2269729690556,-6.451612903225806
3133.2270454380755,0.0
3134.227117907095,3.225806451612903
3135.2271903761143,0.0
3136.2272628451337,-3.225806451612903
3137.227335314153,-3.225806451612903
3138.227407783173,3.225806451612903
3139.2274802521924,0.0
3140.227552721212,3.225806451612903
3141.2276251902313,-3.225806451612903
3142.2276976592507,0.0
3143.22777012827,0.0
3144.22784259729,6.451612903225806
3145.2279150663094,0.0
3146.227987535329,-6.451612903225806
3147.228060004348,-3.225806451612903
3148.2281324733676,-6.451612903225806
3149.228204942387,-6.451612903225806
3150.228277411407,-6.451612903225806
3151.2283498804263,-6.451612903225806
3152.2284223494457,3.225806451612903
3153.228494818465,6.451612903225806
3154.2285672874846,9.677419354838708
3155.2286397565044,9.677419354838708
3156.228712225524,6.451612903225806
3157.2287846945433,9.677419354838708
3158.2288571635627,3.225806451612903
3159.228929632582,9.677419354838708
3160.2290021016015,-9.677419354838708
3161.2290745706214,0.0
3162.229147039641,-16.129032258064516
3163.22921950866,-9.677419354838708
3164.2292919776796,-6.451612903225806
3165.229364446699,-12.903225806451612
3166.2294369157185,-6.451612903225806
3167.2295093847383,6.451612903225806
3168.2295818537577,9.677419354838708
3169.229654322777,16.129032258064516
3170.2297267917966,9.677419354838708
3171.229799260816,3.225806451612903
3172.2298717298354,0.0
3173.2299441988553,0.0
3174.2300166678747,3.225806451612903
3175.230089136894,3.225806451612903
3176.2301616059135,0.0
3177.230234074933,3.225806451612903
3178.230306543953,3.225806451612903
3179.230379012972,-3.225806451612903
3180.2304514819916,-6.451612903225806
3181.230523951011,0.0
3182.2305964200305,-9.677419354838708
3183.23066888905,-9.677419354838708
3184.2307413580697,0.0
3185.230813827089,-9.677419354838708
3186.2308862961086,-3.225806451612903
3187.230958765128,0.0
3188.2310312341474,3.225806451612903
3189.231103703167,0.0
3190.2311761721867,-6.451612903225806
3191.231248641206,-3.225806451612903
3192.2313211102255,0.0
3193.231393579245,0.0
3194.2314660482643,0.0
3195.231538517284,6.451612903225806
3196.2316109863036,0.0
3197.231683455323,-6.451612903225806
3198.2317559243425,0.0
3199.231828393362,-6.451612903225806
3200.2319008623813,0.0
3201.231973331401,-6.451612903225806
3202.2320458004206,3.225806451612903
3203.23211826944,9.677419354838708
3204.2321907384594,3.225806451612903
3205.232263207479,6.451612903225806
3206.232335676498,3.225806451612903
3207.232408145518,9.677419354838708
3208.2324806145375,9.677419354838708
3209.232553083557,6.451612903225806
3210.2326255525763,-6.451612903225806
3211.2326980215958,0.0
3212.232770490615,6.451612903225806
3213.232842959635,3.225806451612903
3214.2329154286545,3.225806451612903
3215.232987897674,3.225806451612903
3216.2330603666933,-3.225806451612903
3217.2331328357127,-6.451612903225806
3218.2332053047326,3.225806451612903
3219.233277773752,9.677419354838708
3220.2333502427714,3.225806451612903
3221.233422711791,-9.677419354838708
3222.23349518081,-6.451612903225806
3223.2335676498296,-12.903225806451612
3224.2336401188495,-12.903225806451612
3225.233712587869,-6.451612903225806
3226.2337850568883,0.0
3227.2338575259078,3.225806451612903
3228.233929994927,3.225806451612903
3229.2340024639466,9.677419354838708
3230.2340749329665,9.677419354838708
3231.234147401986,9.677419354838708
3232.2342198710053,3.225806451612903
3233.2342923400247,3.225806451612903
3234.234364809044,0.0
3235.2344372780635,3.225806451612903
3236.2345097470834,3.225806451612903
3237.234582216103,-3.225806451612903
3238.234654685122,-6.451612903225806
3239.2347271541416,3.225806451612903
3240.234799623161,0.0
3241.234872092181,0.0
3242.2349445612003,-9.677419354838708
3243.2350170302198,-6.451612903225806
3244.235089499239,0.0
3245.2351619682586,-6.451612903225806
3246.235234437278,-6.451612903225806
3247.235306906298,-6.451612903225806
3248.2353793753173,-3.225806451612903
3249.2354518443367,0.0
3250.235524313356,-3.225806451612903
3251.2355967823755,0.0
3252.235669251395,0.0
3253.235741720415,0.0
3254.235814189434,0.0
3255.2358866584536,-3.225806451612903
3256.235959127473,6.451612903225806
3257.2360315964925,9.677419354838708
3258.2361040655123,0.0
3259.2361765345318,3.225806451612903
3260.236249003551,0.0
3261.2363214725706,3.225806451612903
3262.23639394159,0.0
3263.2364664106094,0.0
3264.2365388796293,-3.225806451612903
3265.2366113486487,-9.677419354838708
3266.236683817668,-6.451612903225806
3267.2367562866875,0.0
3268.236828755707,-3.225806451612903
3269.2369012247264,-6.451612903225806
3270.236973693746,-3.225806451612903
3271.2370461627656,3.225806451612903
3272.237118631785,-9.677419354838708
3273.2371911008045,3.225806451612903
3274.237263569824,12.903225806451612
3275.2373360388433,9.677419354838708
3276.237408507863,19.354838709677416
3277.2374809768826,12.903225806451612
3278.237553445902,12.903225806451612
3279.2376259149214,3.225806451612903
3280.237698383941,0.0
3281.2377708529607,6.451612903225806
3282.23784332198,3.225806451612903
3283.2379157909995,-3.225806451612903
3284.237988260019,-6.451612903225806
3285.2380607290384,-6.451612903225806
3286.2381331980578,0.0
3287.2382056670776,-9.677419354838708
3288.238278136097,3.225806451612903
3289.2383506051165,0.0
3290.238423074136,-6.451612903225806
3291.2384955431553,-6.451612903225806
3292.2385680121747,-6.451612903225806
3293.2386404811946,3.225806451612903
3294.238712950214,-3.225806451612903
3295.2387854192334,-3.225806451612903
3296.238857888253,0.0
3297.2389303572722,0.0
3298.239002826292,3.225806451612903
3299.2390752953115,0.0
3300.239147764331,-6.451612903225806
3301.2392202333504,-6.451612903225806
3302.2392927023698,-9.677419354838708
3303.239365171389,6.451612903225806
3304.239437640409,3.225806451612903
3305.2395101094285,0.0
3306.239582578448,0.0
3307.2396550474673,6.451612903225806
3308.2397275164867,3.225806451612903
3309.239799985506,3.225806451612903
3310.239872454526,6.451612903225806
3311.2399449235454,0.0
3312.240017392565,-6.451612903225806
3313.2400898615842,0.0
3314.2401623306037,-6.451612903225806
3315.240234799623,3.225806451612903
3316.240307268643,0.0
3317.2403797376624,-3.225806451612903
3318.2404522066818,-3.225806451612903
3319.240524675701,0.0
3320.2405971447206,0.0
3321.2406696137405,3.225806451612903
3322.24074208276,-3.225806451612903
3323.2408145517793,0.0
3324.2408870207987,0.0
3325.240959489818,3.225806451612903
3326.2410319588375,9.677419354838708
3327.2411044278574,6.451612903225806
3328.241176896877,12.903225806451612
3329.2412493658962,9.677419354838708
3330.2413218349157,0.0
3331.241394303935,-6.451612903225806
3332.2414667729545,0.0
3333.2415392419744,0.0
3334.2416117109938,-3.225806451612903
3335.241684180013,-3.225806451612903
3336.2417566490326,6.451612903225806
3337.241829118052,3.225806451612903
3338.2419015870714,3.225806451612903
3339.2419740560913,6.451612903225806
3340.2420465251107,0.0
3341.24211899413,-3.225806451612903
3342.2421914631495,-6.451612903225806
3343.242263932169,-3.225806451612903
3344.242336401189,-9.677419354838708
3345.2424088702082,-6.451612903225806
3346.2424813392277,-6.451612903225806
3347.242553808247,-6.451612903225806
3348.2426262772665,0.0
3349.242698746286,6.451612903225806
3350.2427712153058,6.451612903225806
3351.242843684325,-3.225806451612903
3352.2429161533446,-3.225806451612903
3353.242988622364,-3.225806451612903
3354.2430610913834,-3.225806451612903
3355.243133560403,3.225806451612903
3356.2432060294227,9.677419354838708
3357.243278498442,9.677419354838708
3358.2433509674615,12.903225806451612
3359.243423436481,3.225806451612903
3360.2434959055004,0.0
3361.2435683745202,-3.225806451612903
3362.2436408435397,-3.225806451612903
3363.243713312559,6.451612903225806
3364.2437857815785,0.0
3365.243858250598,-9.677419354838708
3366.2439307196173,-6.451612903225806
3367.244003188637,-3.225806451612903
3368.2440756576566,3.225806451612903
3369.244148126676,0.0
3370.2442205956954,-6.451612903225806
3371.244293064715,-6.451612903225806
3372.2443655337343,0.0
3373.244438002754,0.0
3374.2445104717735,3.225806451612903
3375.244582940793,6.451612903225806
3376.2446554098124,12.903225806451612
3377.244727878832,12.903225806451612
3378.244800347851,0.0
3379.244872816871,3.225806451612903
3380.2449452858905,-6.451612903225806
3381.24501775491,3.225806451612903
3382.2450902239293,3.225806451612903
3383.2451626929487,0.0
3384.2452351619686,12.903225806451612
3385.245307630988,9.677419354838708
3386.2453801000074,6.451612903225806
3387.245452569027,0.0
3388.2455250380463,-6.451612903225806
3389.2455975070657,6.451612903225806
3390.2456699760855,-6.451612903225806
3391.245742445105,-6.451612903225806
3392.2458149141244,-6.451612903225806
3393.245887383144,-6.451612903225806
3394.245959852163,-3.225806451612903
3395.2460323211826,3.225806451612903
3396.2461047902025,-3.225806451612903
3397.246177259222,0.0
3398.2462497282413,-3.225806451612903
3399.2463221972607,0.0
3400.24639466628,-3.225806451612903
3401.2464671353,3.225806451612903
3402.2465396043194,0.0
3403.246612073339,-3.225806451612903
3404.2466845423583,3.225806451612903
3405.2467570113777,6.451612903225806
3406.246829480397,3.225806451612903
3407.246901949417,-6.451612903225806
3408.2469744184364,-3.225806451612903
3409.247046887456,3.225806451612903
3410.247119356475,0.0
3411.2471918254946,3.225806451612903
3412.247264294514,3.225806451612903
3413.247336763534,12.903225806451612
3414.2474092325533,12.903225806451612
3415.2474817015727,-6.451612903225806
3416.247554170592,-6.451612903225806
3417.2476266396116,0.0
3418.247699108631,3.225806451612903
3419.247771577651,9.677419354838708
3420.2478440466703,0.0
3421.2479165156897,3.225806451612903
3422.247988984709,-3.225806451612903
3423.2480614537285,-6.451612903225806
3424.2481339227484,6.451612903225806
3425.248206391768,0.0
3426.248278860787,0.0
3427.2483513298066,-3.225806451612903
3428.248423798826,0.0
3429.2484962678454,-9.677419354838708
3430.2485687368653,-6.451612903225806
3431.2486412058847,3.225806451612903
3432.248713674904,-9.677419354838708
3433.2487861439236,-3.225806451612903
3434.248858612943,3.225806451612903
3435.2489310819624,-3.225806451612903
3436.2490035509823,6.451612903225806
3437.2490760200017,12.903225806451612
3438.249148489021,22.58064516129032
3439.2492209580405,9.677419354838708
3440.24929342706,3.225806451612903
3441.24936589608,-3.225806451612903
3442.249438365099,-9.677419354838708
3443.2495108341186,0.0
3444.249583303138,-6.451612903225806
3445.2496557721574,-3.225806451612903
3446.249728241177,0.0
3447.2498007101967,0.0
3448.249873179216,-9.677419354838708
3449.2499456482356,3.225806451612903
3450.250018117255,0.0
3451.2500905862744,0.0
3452.250163055294,-3.225806451612903
3453.2502355243137,3.225806451612903
3454.250307993333,3.225806451612903
3455.2503804623525,3.225806451612903
3456.250452931372,-6.451612903225806
3457.2505254003913,0.0
3458.2505978694107,3.225806451612903
3459.2506703384306,6.451612903225806
3460.25074280745,0.0
3461.2508152764694,-3.225806451612903
3462.250887745489,-6.451612903225806
3463.2509602145083,-6.451612903225806
3464.251032683528,0.0
3465.2511051525476,-6.451612903225806
3466.251177621567,3.225806451612903
3467.2512500905864,0.0
3468.251322559606,3.225806451612903
3469.251395028625,-6.451612903225806
3470.251467497645,0.0
3471.2515399666645,3.225806451612903
3472.251612435684,0.0
3473.2516849047033,3.225806451612903
3474.2517573737227,0.0
3475.251829842742,-6.451612903225806
3476.251902311762,3.225806451612903
3477.2519747807814,0.0
3478.252047249801,0.0
3479.2521197188203,0.0
3480.2521921878397,0.0
3481.252264656859,0.0
3482.252337125879,6.451612903225806
3483.2524095948984,6.451612903225806
3484.252482063918,9.677419354838708
3485.252554532937,3.225806451612903
3486.2526270019566,0.0
3487.2526994709765,3.225806451612903
3488.252771939996,3.225806451612903
3489.2528444090153,3.225806451612903
3490.2529168780347,-6.451612903225806
3491.252989347054,-3.225806451612903
3492.2530618160736,0.0
3493.2531342850934,3.225806451612903
3494.253206754113,0.0
3495.2532792231323,0.0
3496.2533516921517,16.129032258064516
3497.253424161171,3.225806451612903
3498.2534966301905,-6.451612903225806
3499.2535690992104,0.0
3500.25364156823,6.451612903225806
3501.253714037249,3.225806451612903
3502.2537865062686,0.0
3503.253858975288,-6.451612903225806
3504.253931444308,-3.225806451612903
3505.2540039133273,3.225806451612903
3506.2540763823467,3.225806451612903
3507.254148851366,0.0
3508.2542213203856,3.225806451612903
3509.254293789405,6.451612903225806
3510.254366258425,-6.451612903225806
3511.2544387274443,0.0
3512.2545111964637,-6.451612903225806
3513.254583665483,-3.225806451612903
3514.2546561345025,6.451612903225806
3515.254728603522,-3.225806451612903
3516.254801072542,3.225806451612903
3517.254873541561,0.0
3518.2549460105806,0.0
3519.2550184796,3.225806451612903
3520.2550909486195,3.225806451612903
3521.255163417639,3.225806451612903
3522.2552358866587,0.0
3523.255308355678,-3.225806451612903
3524.2553808246976,3.225806451612903
3525.255453293717,-6.451612903225806
3526.2555257627364,3.225806451612903
3527.2555982317563,0.0
3528.2556707007757,-9.677419354838708
3529.255743169795,-9.677419354838708
3530.2558156388145,-6.451612903225806
3531.255888107834,-6.451612903225806
3532.2559605768533,-6.451612903225806
3533.256033045873,-6.451612903225806
3534.2561055148926,3.225806451612903
3535.256177983912,-3.225806451612903
3536.2562504529315,9.677419354838708
3537.256322921951,9.677419354838708
3538.2563953909703,6.451612903225806
3539.25646785999,3.225806451612903
3540.2565403290096,-3.225806451612903
3541.256612798029,-6.451612903225806
3542.2566852670484,0.0
3543.256757736068,-3.225806451612903
3544.2568302050877,0.0
3545.256902674107,3.225806451612903
3546.2569751431265,16.129032258064516
3547.257047612146,16.129032258064516
3548.2571200811653,22.58064516129032
3549.2571925501848,9.677419354838708
3550.2572650192046,3.225806451612903
3551.257337488224,0.0
3552.2574099572435,-6.451612903225806
3553.257482426263,-9.677419354838708
3554.2575548952823,-3.225806451612903
