timestamp,valores
0.0,25.806451612903224
1.0000300309318597,29.03225806451613
2.0000600618637194,35.483870967741936
3.0000900927955794,51.61290322580645
4.000120123727439,45.16129032258064
5.000150154659298,29.03225806451613
6.000180185591159,22.58064516129032
7.000210216523018,32.25806451612903
8.000240247454878,35.483870967741936
9.000270278386738,19.354838709677416
10.000300309318597,9.677419354838708
11.000330340250457,3.225806451612903
12.000360371182317,16.129032258064516
13.000390402114176,32.25806451612903
14.000420433046036,22.58064516129032
15.000450463977895,16.129032258064516
16.000480494909755,6.451612903225806
17.000510525841616,3.225806451612903
18.000540556773476,-6.451612903225806
19.000570587705333,-12.903225806451612
20.000600618637193,-6.451612903225806
21.000630649569054,-3.225806451612903
22.000660680500914,-6.451612903225806
23.000690711432775,-6.451612903225806
24.000720742364635,-3.225806451612903
25.00075077329649,-6.451612903225806
26.000780804228352,-12.903225806451612
27.000810835160213,-16.129032258064516
28.000840866092073,-16.129032258064516
29.000870897023933,-25.806451612903224
30.00090092795579,-32.25806451612903
31.00093095888765,-29.03225806451613
32.00096098981951,-25.806451612903224
33.00099102075137,-16.129032258064516
34.00102105168323,-3.225806451612903
35.00105108261509,12.903225806451612
36.00108111354695,12.903225806451612
37.00111114447881,16.129032258064516
38.001141175410666,16.129032258064516
39.001171206342526,12.903225806451612
40.00120123727439,12.903225806451612
41.00123126820625,22.58064516129032
42.00126129913811,29.03225806451613
43.00129133006997,25.806451612903224
44.00132136100183,12.903225806451612
45.00135139193369,3.225806451612903
46.00138142286555,9.677419354838708
47.00141145379741,9.677419354838708
48.00144148472927,3.225806451612903
49.00147151566112,0.0
50.00150154659298,6.451612903225806
51.001531577524844,3.225806451612903
52.001561608456704,-6.451612903225806
53.001591639388565,0.0
54.001621670320425,6.451612903225806
55.001651701252285,6.451612903225806
56.001681732184146,3.225806451612903
57.001711763116006,0.0
58.00174179404787,-9.677419354838708
59.00177182497972,3.225806451612903
60.00180185591158,16.129032258064516
61.00183188684344,25.806451612903224
62.0018619177753,48.387096774193544
63.00189194870716,64.51612903225806
64.00192197963902,64.51612903225806
65.00195201057088,74.19354838709677
66.00198204150274,93.54838709677418
67.0020120724346,106.4516129032258
68.00204210336646,112.9032258064516
69.00207213429832,122.58064516129032
70.00210216523018,151.61290322580646
71.00213219616204,174.19354838709677
72.0021622270939,203.2258064516129
73.00219225802576,222.5806451612903
74.00222228895763,245.16129032258064
75.00225231988948,270.96774193548384
76.00228235082133,296.7741935483871
77.0023123817532,319.3548387096774
78.00234241268505,335.48387096774195
79.00237244361692,335.48387096774195
80.00240247454877,341.93548387096774
81.00243250548064,345.1612903225806
82.0024625364125,348.38709677419354
83.00249256734436,354.83870967741933
84.00252259827622,361.2903225806451
85.00255262920808,361.2903225806451
86.00258266013994,348.38709677419354
87.00261269107179,303.2258064516129
88.00264272200366,274.19354838709677
89.00267275293551,258.06451612903226
90.00270278386738,222.5806451612903
91.00273281479923,167.74193548387098
92.0027628457311,125.80645161290322
93.00279287666295,58.06451612903226
94.00282290759482,-22.58064516129032
95.00285293852667,-99.99999999999999
96.00288296945854,-161.29032258064515
97.0029130003904,-222.5806451612903
98.00294303132225,-290.32258064516134
99.00297306225411,-364.51612903225805
100.00300309318597,-435.4838709677419
101.00303312411783,-490.3225806451613
102.00306315504969,-535.4838709677418
103.00309318598156,-577.4193548387096
104.00312321691341,-600.0
105.00315324784528,-619.3548387096773
106.00318327877713,-632.258064516129
107.00321330970898,-645.1612903225806
108.00324334064085,-654.8387096774193
109.0032733715727,-651.6129032258063
110.00330340250457,-641.9354838709677
111.00333343343642,-612.9032258064516
112.00336346436829,-590.3225806451613
113.00339349530014,-570.9677419354838
114.00342352623201,-538.7096774193549
115.00345355716387,-493.54838709677415
116.00348358809573,-445.1612903225806
117.00351361902759,-409.6774193548387
118.00354364995944,-383.8709677419355
119.00357368089131,-351.61290322580646
120.00360371182316,-329.0322580645161
121.00363374275503,-309.67741935483866
122.00366377368688,-283.8709677419355
123.00369380461875,-248.38709677419354
124.0037238355506,-229.0322580645161
125.00375386648247,-206.4516129032258
126.00378389741432,-183.8709677419355
127.00381392834619,-161.29032258064515
128.00384395927804,-132.258064516129
129.0038739902099,-99.99999999999999
130.00390402114175,-74.19354838709677
131.00393405207362,-54.83870967741935
132.00396408300549,-38.70967741935483
133.00399411393735,-32.25806451612903
134.0040241448692,-12.903225806451612
135.00405417580106,16.129032258064516
136.00408420673293,35.483870967741936
137.0041142376648,51.61290322580645
138.00414426859663,67.74193548387096
139.0041742995285,87.09677419354838
140.00420433046037,96.77419354838709
141.0042343613922,99.99999999999999
142.00426439232407,106.4516129032258
143.00429442325594,109.6774193548387
144.0043244541878,116.12903225806453
145.00435448511965,125.80645161290322
146.00438451605152,129.03225806451613
147.00441454698338,132.258064516129
148.00444457791525,122.58064516129032
149.0044746088471,129.03225806451613
150.00450463977896,132.258064516129
151.00453467071083,132.258064516129
152.00456470164266,135.48387096774192
153.00459473257453,141.93548387096774
154.0046247635064,138.70967741935482
155.00465479443827,138.70967741935482
156.0046848253701,138.70967741935482
157.00471485630197,151.61290322580646
158.00474488723384,145.16129032258067
159.0047749181657,129.03225806451613
160.00480494909755,129.03225806451613
161.00483498002941,132.258064516129
162.00486501096128,141.93548387096774
163.00489504189312,141.93548387096774
164.004925072825,151.61290322580646
165.00495510375686,167.74193548387098
166.00498513468872,174.19354838709677
167.00501516562056,174.19354838709677
168.00504519655243,174.19354838709677
169.0050752274843,170.96774193548387
170.00510525841617,170.96774193548387
171.005135289348,170.96774193548387
172.00516532027987,170.96774193548387
173.00519535121174,167.74193548387098
174.00522538214358,154.83870967741933
175.00525541307545,158.06451612903226
176.0052854440073,158.06451612903226
177.00531547493918,154.83870967741933
178.00534550587102,154.83870967741933
179.0053755368029,154.83870967741933
180.00540556773475,164.51612903225805
181.00543559866662,193.54838709677418
182.00546562959846,196.7741935483871
183.00549566053033,187.09677419354836
184.0055256914622,164.51612903225805
185.00555572239404,151.61290322580646
186.0055857533259,141.93548387096774
187.00561578425777,135.48387096774192
188.00564581518964,138.70967741935482
189.00567584612148,138.70967741935482
190.00570587705334,141.93548387096774
191.0057359079852,129.03225806451613
192.00576593891708,132.258064516129
193.00579596984892,148.38709677419354
194.0058260007808,148.38709677419354
195.00585603171265,158.06451612903226
196.0058860626445,167.74193548387098
197.00591609357636,174.19354838709677
198.00594612450823,187.09677419354836
199.0059761554401,196.7741935483871
200.00600618637193,199.99999999999997
201.0060362173038,193.54838709677418
202.00606624823567,190.32258064516128
203.0060962791675,177.41935483870967
204.00612631009938,167.74193548387098
205.00615634103124,154.83870967741933
206.0061863719631,145.16129032258067
207.00621640289495,141.93548387096774
208.00624643382682,145.16129032258067
209.00627646475868,151.61290322580646
210.00630649569055,158.06451612903226
211.0063365266224,164.51612903225805
212.00636655755426,164.51612903225805
213.00639658848613,164.51612903225805
214.00642661941797,164.51612903225805
215.00645665034983,174.19354838709677
216.0064866812817,177.41935483870967
217.00651671221357,174.19354838709677
218.0065467431454,174.19354838709677
219.00657677407727,174.19354838709677
220.00660680500914,177.41935483870967
221.006636835941,170.96774193548387
222.00666686687285,161.29032258064515
223.00669689780472,161.29032258064515
224.00672692873658,158.06451612903226
225.00675695966842,158.06451612903226
226.0067869906003,158.06451612903226
227.00681702153216,158.06451612903226
228.00684705246402,148.38709677419354
229.00687708339586,138.70967741935482
230.00690711432773,141.93548387096774
231.0069371452596,148.38709677419354
232.00696717619147,154.83870967741933
233.0069972071233,164.51612903225805
234.00702723805517,177.41935483870967
235.00705726898704,180.64516129032256
236.00708729991888,174.19354838709677
237.00711733085075,170.96774193548387
238.00714736178261,164.51612903225805
239.00717739271448,158.06451612903226
240.00720742364632,174.19354838709677
241.0072374545782,180.64516129032256
242.00726748551006,180.64516129032256
243.00729751644192,180.64516129032256
244.00732754737376,193.54838709677418
245.00735757830563,206.4516129032258
246.0073876092375,206.4516129032258
247.00741764016934,199.99999999999997
248.0074476711012,193.54838709677418
249.00747770203307,180.64516129032256
250.00750773296494,180.64516129032256
251.00753776389678,180.64516129032256
252.00756779482865,196.7741935483871
253.0075978257605,212.9032258064516
254.00762785669238,216.12903225806448
255.00765788762422,219.3548387096774
256.0076879185561,212.9032258064516
257.0077179494879,196.7741935483871
258.0077479804198,180.64516129032256
259.00777801135166,187.09677419354836
260.0078080422835,196.7741935483871
261.0078380732154,193.54838709677418
262.00786810414724,183.8709677419355
263.00789813507913,170.96774193548387
264.00792816601097,161.29032258064515
265.0079581969428,193.54838709677418
266.0079882278747,219.3548387096774
267.00801825880654,251.61290322580643
268.0080482897384,261.2903225806452
269.0080783206703,251.61290322580643
270.0081083516021,232.25806451612905
271.00813838253396,219.3548387096774
272.00816841346585,209.6774193548387
273.0081984443977,199.99999999999997
274.0082284753296,193.54838709677418
275.0082585062614,190.32258064516128
276.00828853719327,180.64516129032256
277.00831856812516,170.96774193548387
278.008348599057,174.19354838709677
279.00837862998884,174.19354838709677
280.00840866092074,167.74193548387098
281.0084386918526,154.83870967741933
282.0084687227844,141.93548387096774
283.0084987537163,129.03225806451613
284.00852878464815,112.9032258064516
285.00855881558005,96.77419354838709
286.0085888465119,90.32258064516128
287.0086188774437,83.87096774193549
288.0086489083756,80.64516129032258
289.00867893930746,74.19354838709677
290.0087089702393,70.96774193548387
291.0087390011712,51.61290322580645
292.00876903210303,16.129032258064516
293.00879906303487,19.354838709677416
294.00882909396677,25.806451612903224
295.0088591248986,25.806451612903224
296.0088891558305,12.903225806451612
297.00891918676234,6.451612903225806
298.0089492176942,9.677419354838708
299.0089792486261,0.0
300.0090092795579,-9.677419354838708
301.00903931048975,-29.03225806451613
302.00906934142165,-48.387096774193544
303.0090993723535,-58.06451612903226
304.0091294032853,-51.61290322580645
305.0091594342172,-48.387096774193544
306.00918946514906,-48.387096774193544
307.00921949608096,-51.61290322580645
308.0092495270128,-58.06451612903226
309.00927955794464,-74.19354838709677
310.00930958887653,-80.64516129032258
311.0093396198084,-87.09677419354838
312.0093696507402,-99.99999999999999
313.0093996816721,-116.12903225806453
314.00942971260395,-125.80645161290322
315.0094597435358,-129.03225806451613
316.0094897744677,-138.70967741935482
317.0095198053995,-151.61290322580646
318.0095498363314,-164.51612903225805
319.00957986726326,-164.51612903225805
320.0096098981951,-167.74193548387098
321.009639929127,-177.41935483870967
322.00966996005883,-187.09677419354836
323.00969999099067,-187.09677419354836
324.00973002192256,-187.09677419354836
325.0097600528544,-180.64516129032256
326.00979008378624,-183.8709677419355
327.00982011471814,-190.32258064516128
328.00985014565,-196.7741935483871
329.0098801765819,-196.7741935483871
330.0099102075137,-196.7741935483871
331.00994023844555,-193.54838709677418
332.00997026937745,-190.32258064516128
333.0100003003093,-187.09677419354836
334.0100303312411,-190.32258064516128
335.010060362173,-196.7741935483871
336.01009039310486,-203.2258064516129
337.0101204240367,-206.4516129032258
338.0101504549686,-219.3548387096774
339.01018048590043,-219.3548387096774
340.01021051683233,-209.6774193548387
341.01024054776417,-203.2258064516129
342.010270578696,-206.4516129032258
343.0103006096279,-203.2258064516129
344.01033064055974,-206.4516129032258
345.0103606714916,-209.6774193548387
346.0103907024235,-206.4516129032258
347.0104207333553,-190.32258064516128
348.01045076428716,-187.09677419354836
349.01048079521905,-190.32258064516128
350.0105108261509,-193.54838709677418
351.0105408570828,-212.9032258064516
352.0105708880146,-232.25806451612905
353.01060091894647,-235.48387096774195
354.01063094987836,-245.16129032258064
355.0106609808102,-248.38709677419354
356.01069101174204,-258.06451612903226
357.01072104267394,-264.516129032258
358.0107510736058,-254.83870967741933
359.0107811045376,-258.06451612903226
360.0108111354695,-258.06451612903226
361.01084116640135,-248.38709677419354
362.01087119733324,-238.70967741935485
363.0109012282651,-206.4516129032258
364.0109312591969,-158.06451612903226
365.0109612901288,-141.93548387096774
366.01099132106066,-135.48387096774192
367.0110213519925,-129.03225806451613
368.0110513829244,-129.03225806451613
369.01108141385623,-145.16129032258067
370.01111144478807,-154.83870967741933
371.01114147571997,-164.51612903225805
372.0111715066518,-161.29032258064515
373.0112015375837,-158.06451612903226
374.01123156851554,-167.74193548387098
375.0112615994474,-161.29032258064515
376.0112916303793,-158.06451612903226
377.0113216613111,-161.29032258064515
378.01135169224295,-167.74193548387098
379.01138172317485,-177.41935483870967
380.0114117541067,-180.64516129032256
381.0114417850385,-187.09677419354836
382.0114718159704,-190.32258064516128
383.01150184690226,-193.54838709677418
384.01153187783416,-196.7741935483871
385.011561908766,-187.09677419354836
386.01159193969784,-180.64516129032256
387.01162197062973,-177.41935483870967
388.0116520015616,-170.96774193548387
389.0116820324934,-167.74193548387098
390.0117120634253,-167.74193548387098
391.01174209435715,-158.06451612903226
392.011772125289,-151.61290322580646
393.0118021562209,-148.38709677419354
394.0118321871527,-145.16129032258067
395.01186221808456,-151.61290322580646
396.01189224901646,-161.29032258064515
397.0119222799483,-164.51612903225805
398.0119523108802,-158.06451612903226
399.01198234181203,-151.61290322580646
400.01201237274387,-138.70967741935482
401.01204240367576,-129.03225806451613
402.0120724346076,-122.58064516129032
403.01210246553944,-116.12903225806453
404.01213249647134,-119.35483870967742
405.0121625274032,-119.35483870967742
406.012192558335,-119.35483870967742
407.0122225892669,-129.03225806451613
408.01225262019875,-116.12903225806453
409.01228265113065,-106.4516129032258
410.0123126820625,-99.99999999999999
411.0123427129943,-96.77419354838709
412.0123727439262,-99.99999999999999
413.01240277485806,-103.2258064516129
414.0124328057899,-106.4516129032258
415.0124628367218,-109.6774193548387
416.01249286765363,-119.35483870967742
417.0125228985855,-125.80645161290322
418.01255292951737,-122.58064516129032
419.0125829604492,-112.9032258064516
420.0126129913811,-90.32258064516128
421.01264302231294,-80.64516129032258
422.0126730532448,-77.41935483870967
423.0127030841767,-74.19354838709677
424.0127331151085,-87.09677419354838
425.01276314604036,-87.09677419354838
426.01279317697225,-77.41935483870967
427.0128232079041,-77.41935483870967
428.01285323883593,-80.64516129032258
429.0128832697678,-87.09677419354838
430.01291330069967,-90.32258064516128
431.01294333163156,-87.09677419354838
432.0129733625634,-74.19354838709677
433.01300339349524,-61.29032258064516
434.01303342442714,-51.61290322580645
435.013063455359,-54.83870967741935
436.0130934862908,-70.96774193548387
437.0131235172227,-77.41935483870967
438.01315354815455,-87.09677419354838
439.0131835790864,-103.2258064516129
440.0132136100183,-119.35483870967742
441.0132436409501,-106.4516129032258
442.013273671882,-80.64516129032258
443.01330370281386,-64.51612903225806
444.0133337337457,-58.06451612903226
445.0133637646776,-38.70967741935483
446.01339379560943,-35.483870967741936
447.01342382654127,-48.387096774193544
448.01345385747317,-41.935483870967744
449.013483888405,-38.70967741935483
450.01351391933684,-45.16129032258064
451.01354395026874,-41.935483870967744
452.0135739812006,-38.70967741935483
453.0136040121325,-35.483870967741936
454.0136340430643,-38.70967741935483
455.01366407399615,-38.70967741935483
456.01369410492805,-32.25806451612903
457.0137241358599,-25.806451612903224
458.0137541667917,-29.03225806451613
459.0137841977236,-35.483870967741936
460.01381422865546,-48.387096774193544
461.0138442595873,-48.387096774193544
462.0138742905192,-45.16129032258064
463.01390432145104,-35.483870967741936
464.01393435238293,-38.70967741935483
465.01396438331477,-38.70967741935483
466.0139944142466,-35.483870967741936
467.0140244451785,-41.935483870967744
468.01405447611035,-48.387096774193544
469.0140845070422,-48.387096774193544
470.0141145379741,-32.25806451612903
471.0141445689059,-12.903225806451612
472.01417459983776,-25.806451612903224
473.01420463076965,-35.483870967741936
474.0142346617015,-35.483870967741936
475.0142646926334,-48.387096774193544
476.01429472356523,-48.387096774193544
477.01432475449707,-41.935483870967744
478.01435478542896,-41.935483870967744
479.0143848163608,-41.935483870967744
480.01441484729264,-38.70967741935483
481.01444487822454,-38.70967741935483
482.0144749091564,-38.70967741935483
483.0145049400882,-35.483870967741936
484.0145349710201,-32.25806451612903
485.01456500195195,-38.70967741935483
486.01459503288385,-45.16129032258064
487.0146250638157,-51.61290322580645
488.0146550947475,-41.935483870967744
489.0146851256794,-25.806451612903224
490.01471515661126,-16.129032258064516
491.0147451875431,-9.677419354838708
492.014775218475,-6.451612903225806
493.01480524940683,-12.903225806451612
494.0148352803387,-19.354838709677416
495.01486531127057,-29.03225806451613
496.0148953422024,-35.483870967741936
497.0149253731343,-38.70967741935483
498.01495540406614,-38.70967741935483
499.014985434998,-38.70967741935483
500.0150154659299,-25.806451612903224
501.0150454968617,-22.58064516129032
502.01507552779356,-25.806451612903224
503.01510555872545,-35.483870967741936
504.0151355896573,-41.935483870967744
505.01516562058913,-32.25806451612903
506.015195651521,-32.25806451612903
507.01522568245286,-25.806451612903224
508.01525571338476,-16.129032258064516
509.0152857443166,-12.903225806451612
510.01531577524844,-16.129032258064516
511.01534580618033,-16.129032258064516
512.0153758371122,-12.903225806451612
513.015405868044,-12.903225806451612
514.0154358989759,-12.903225806451612
515.0154659299078,-19.354838709677416
516.0154959608396,-35.483870967741936
517.0155259917715,-38.70967741935483
518.0155560227033,-25.806451612903224
519.0155860536352,-19.354838709677416
520.015616084567,-9.677419354838708
521.015646115499,-6.451612903225806
522.0156761464308,-6.451612903225806
523.0157061773626,-9.677419354838708
524.0157362082945,-3.225806451612903
525.0157662392263,-6.451612903225806
526.0157962701583,-16.129032258064516
527.0158263010901,-9.677419354838708
528.0158563320219,-3.225806451612903
529.0158863629538,-3.225806451612903
530.0159163938856,-3.225806451612903
531.0159464248175,-9.677419354838708
532.0159764557494,-6.451612903225806
533.0160064866812,-9.677419354838708
534.0160365176131,-19.354838709677416
535.0160665485449,-35.483870967741936
536.0160965794768,-41.935483870967744
537.0161266104087,-38.70967741935483
538.0161566413406,-35.483870967741936
539.0161866722724,-41.935483870967744
540.0162167032042,-29.03225806451613
541.0162467341361,-6.451612903225806
542.0162767650679,3.225806451612903
543.0163067959999,6.451612903225806
544.0163368269317,9.677419354838708
545.0163668578635,16.129032258064516
546.0163968887954,19.354838709677416
547.0164269197272,29.03225806451613
548.0164569506592,29.03225806451613
549.016486981591,25.806451612903224
550.0165170125229,22.58064516129032
551.0165470434547,12.903225806451612
552.0165770743865,3.225806451612903
553.0166071053184,-6.451612903225806
554.0166371362503,-19.354838709677416
555.0166671671822,-12.903225806451612
556.016697198114,3.225806451612903
557.0167272290458,9.677419354838708
558.0167572599777,6.451612903225806
559.0167872909096,-9.677419354838708
560.0168173218415,-9.677419354838708
561.0168473527733,-12.903225806451612
562.0168773837052,-12.903225806451612
563.016907414637,-12.903225806451612
564.0169374455688,-12.903225806451612
565.0169674765008,-12.903225806451612
566.0169975074326,-9.677419354838708
567.0170275383645,-6.451612903225806
568.0170575692963,-6.451612903225806
569.0170876002281,-6.451612903225806
570.0171176311601,0.0
571.0171476620919,3.225806451612903
572.0171776930238,0.0
573.0172077239556,-3.225806451612903
574.0172377548874,-9.677419354838708
575.0172677858193,-3.225806451612903
576.0172978167512,3.225806451612903
577.0173278476831,0.0
578.0173578786149,-3.225806451612903
579.0173879095468,-9.677419354838708
580.0174179404786,-6.451612903225806
581.0174479714105,-6.451612903225806
582.0174780023424,-9.677419354838708
583.0175080332742,-6.451612903225806
584.0175380642061,0.0
585.0175680951379,6.451612903225806
586.0175981260697,3.225806451612903
587.0176281570017,-6.451612903225806
588.0176581879335,-9.677419354838708
589.0176882188654,-9.677419354838708
590.0177182497972,-3.225806451612903
591.017748280729,0.0
592.017778311661,9.677419354838708
593.0178083425928,9.677419354838708
594.0178383735247,16.129032258064516
595.0178684044565,16.129032258064516
596.0178984353884,16.129032258064516
597.0179284663202,22.58064516129032
598.0179584972522,38.70967741935483
599.017988528184,51.61290322580645
600.0180185591158,64.51612903225806
601.0180485900477,61.29032258064516
602.0180786209795,61.29032258064516
603.0181086519115,61.29032258064516
604.0181386828433,61.29032258064516
605.0181687137751,54.83870967741935
606.018198744707,41.935483870967744
607.0182287756388,29.03225806451613
608.0182588065707,19.354838709677416
609.0182888375026,12.903225806451612
610.0183188684344,25.806451612903224
611.0183488993663,41.935483870967744
612.0183789302981,51.61290322580645
613.01840896123,54.83870967741935
614.0184389921619,54.83870967741935
615.0184690230938,51.61290322580645
616.0184990540256,45.16129032258064
617.0185290849574,41.935483870967744
618.0185591158893,41.935483870967744
619.0185891468211,38.70967741935483
620.0186191777531,45.16129032258064
621.0186492086849,51.61290322580645
622.0186792396167,41.935483870967744
623.0187092705486,32.25806451612903
624.0187393014804,19.354838709677416
625.0187693324124,22.58064516129032
626.0187993633442,9.677419354838708
627.018829394276,3.225806451612903
628.0188594252079,3.225806451612903
629.0188894561397,-3.225806451612903
630.0189194870716,6.451612903225806
631.0189495180035,12.903225806451612
632.0189795489354,16.129032258064516
633.0190095798672,19.354838709677416
634.019039610799,19.354838709677416
635.0190696417309,25.806451612903224
636.0190996726628,19.354838709677416
637.0191297035947,6.451612903225806
638.0191597345265,-9.677419354838708
639.0191897654583,-19.354838709677416
640.0192197963902,-29.03225806451613
641.019249827322,-38.70967741935483
642.019279858254,-35.483870967741936
643.0193098891858,-35.483870967741936
644.0193399201177,-22.58064516129032
645.0193699510495,-3.225806451612903
646.0193999819813,3.225806451612903
647.0194300129133,19.354838709677416
648.0194600438451,38.70967741935483
649.019490074777,45.16129032258064
650.0195201057088,41.935483870967744
651.0195501366406,25.806451612903224
652.0195801675725,25.806451612903224
653.0196101985044,19.354838709677416
654.0196402294363,12.903225806451612
655.0196702603681,9.677419354838708
656.0197002913,12.903225806451612
657.0197303222318,9.677419354838708
658.0197603531637,3.225806451612903
659.0197903840956,-9.677419354838708
660.0198204150274,-9.677419354838708
661.0198504459593,-9.677419354838708
662.0198804768911,-16.129032258064516
663.0199105078229,-9.677419354838708
664.0199405387549,-9.677419354838708
665.0199705696867,-3.225806451612903
666.0200006006186,0.0
667.0200306315504,0.0
668.0200606624823,0.0
669.0200906934142,0.0
670.020120724346,3.225806451612903
671.0201507552779,0.0
672.0201807862097,-6.451612903225806
673.0202108171416,0.0
674.0202408480734,6.451612903225806
675.0202708790054,6.451612903225806
676.0203009099372,3.225806451612903
677.020330940869,-6.451612903225806
678.0203609718009,-3.225806451612903
679.0203910027327,0.0
680.0204210336647,-6.451612903225806
681.0204510645965,-9.677419354838708
682.0204810955283,-19.354838709677416
683.0205111264602,-25.806451612903224
684.020541157392,-9.677419354838708
685.0205711883239,0.0
686.0206012192558,-6.451612903225806
687.0206312501876,0.0
688.0206612811195,12.903225806451612
689.0206913120513,19.354838709677416
690.0207213429832,29.03225806451613
691.0207513739151,32.25806451612903
692.020781404847,35.483870967741936
693.0208114357788,61.29032258064516
694.0208414667106,93.54838709677418
695.0208714976425,129.03225806451613
696.0209015285743,158.06451612903226
697.0209315595063,193.54838709677418
698.0209615904381,222.5806451612903
699.02099162137,245.16129032258064
700.0210216523018,270.96774193548384
701.0210516832336,290.32258064516134
702.0210817141656,303.2258064516129
703.0211117450974,316.1290322580645
704.0211417760293,332.25806451612897
705.0211718069611,354.83870967741933
706.0212018378929,374.1935483870967
707.0212318688248,380.64516129032256
708.0212618997567,387.09677419354836
709.0212919306886,399.99999999999994
710.0213219616204,399.99999999999994
711.0213519925522,393.5483870967742
712.0213820234841,383.8709677419355
713.021412054416,377.41935483870964
714.0214420853479,354.83870967741933
715.0214721162797,338.7096774193548
716.0215021472115,300.0
717.0215321781434,241.93548387096774
718.0215622090752,170.96774193548387
719.0215922400072,96.77419354838709
720.021622270939,3.225806451612903
721.0216523018709,-109.6774193548387
722.0216823328027,-206.4516129032258
723.0217123637345,-287.0967741935484
724.0217423946665,-361.2903225806451
725.0217724255983,-438.7096774193548
726.0218024565302,-516.1290322580645
727.021832487462,-577.4193548387096
728.0218625183938,-638.7096774193548
729.0218925493257,-700.0
730.0219225802576,-738.7096774193548
731.0219526111895,-761.2903225806451
732.0219826421213,-777.4193548387098
733.0220126730532,-777.4193548387098
734.022042703985,-767.741935483871
735.022072734917,-761.2903225806451
736.0221027658488,-748.3870967741934
737.0221327967806,-732.2580645161289
738.0221628277125,-709.6774193548387
739.0221928586443,-683.8709677419355
740.0222228895761,-661.2903225806451
741.0222529205081,-632.258064516129
742.0222829514399,-609.6774193548387
743.0223129823718,-574.1935483870968
744.0223430133036,-480.64516129032256
745.0223730442355,-412.9032258064516
746.0224030751674,-374.1935483870967
747.0224331060992,-341.93548387096774
748.0224631370311,-306.4516129032258
749.0224931679629,-280.6451612903225
750.0225231988948,-251.61290322580643
751.0225532298266,-225.8064516129032
752.0225832607586,-203.2258064516129
753.0226132916904,-177.41935483870967
754.0226433226222,-151.61290322580646
755.0226733535541,-129.03225806451613
756.0227033844859,-109.6774193548387
757.0227334154179,-77.41935483870967
758.0227634463497,-41.935483870967744
759.0227934772815,-19.354838709677416
760.0228235082134,-3.225806451612903
761.0228535391452,12.903225806451612
762.022883570077,32.25806451612903
763.022913601009,41.935483870967744
764.0229436319408,48.387096774193544
765.0229736628727,54.83870967741935
766.0230036938045,64.51612903225806
767.0230337247364,80.64516129032258
768.0230637556683,96.77419354838709
769.0230937866002,106.4516129032258
770.023123817532,112.9032258064516
771.0231538484638,119.35483870967742
772.0231838793957,129.03225806451613
773.0232139103275,132.258064516129
774.0232439412595,132.258064516129
775.0232739721913,135.48387096774192
776.0233040031231,138.70967741935482
777.023334034055,132.258064516129
778.0233640649868,138.70967741935482
779.0233940959187,145.16129032258067
780.0234241268506,151.61290322580646
781.0234541577825,161.29032258064515
782.0234841887143,174.19354838709677
783.0235142196461,180.64516129032256
784.023544250578,187.09677419354836
785.0235742815099,190.32258064516128
786.0236043124418,187.09677419354836
787.0236343433736,180.64516129032256
788.0236643743054,167.74193548387098
789.0236944052373,161.29032258064515
790.0237244361691,161.29032258064515
791.0237544671011,154.83870967741933
792.0237844980329,145.16129032258067
793.0238145289647,151.61290322580646
794.0238445598966,154.83870967741933
795.0238745908284,158.06451612903226
796.0239046217604,167.74193548387098
797.0239346526922,177.41935483870967
798.0239646836241,170.96774193548387
799.0239947145559,167.74193548387098
800.0240247454877,167.74193548387098
801.0240547764196,167.74193548387098
802.0240848073515,167.74193548387098
803.0241148382834,170.96774193548387
804.0241448692152,164.51612903225805
805.024174900147,161.29032258064515
806.0242049310789,158.06451612903226
807.0242349620108,145.16129032258067
808.0242649929427,119.35483870967742
809.0242950238745,103.2258064516129
810.0243250548064,96.77419354838709
811.0243550857382,109.6774193548387
812.02438511667,119.35483870967742
813.024415147602,129.03225806451613
814.0244451785338,138.70967741935482
815.0244752094657,145.16129032258067
816.0245052403975,141.93548387096774
817.0245352713293,141.93548387096774
818.0245653022613,135.48387096774192
819.0245953331931,138.70967741935482
820.024625364125,151.61290322580646
821.0246553950568,164.51612903225805
822.0246854259887,183.8709677419355
823.0247154569205,190.32258064516128
824.0247454878524,183.8709677419355
825.0247755187843,183.8709677419355
826.0248055497161,190.32258064516128
827.024835580648,183.8709677419355
828.0248656115798,174.19354838709677
829.0248956425118,170.96774193548387
830.0249256734436,167.74193548387098
831.0249557043754,161.29032258064515
832.0249857353073,161.29032258064515
833.0250157662391,161.29032258064515
834.025045797171,148.38709677419354
835.0250758281029,141.93548387096774
836.0251058590347,138.70967741935482
837.0251358899666,138.70967741935482
838.0251659208984,135.48387096774192
839.0251959518303,116.12903225806453
840.0252259827622,119.35483870967742
841.025256013694,132.258064516129
842.0252860446259,141.93548387096774
843.0253160755577,158.06451612903226
844.0253461064896,167.74193548387098
845.0253761374214,174.19354838709677
846.0254061683534,170.96774193548387
847.0254361992852,164.51612903225805
848.025466230217,158.06451612903226
849.0254962611489,148.38709677419354
850.0255262920807,167.74193548387098
851.0255563230127,174.19354838709677
852.0255863539445,167.74193548387098
853.0256163848763,164.51612903225805
854.0256464158082,170.96774193548387
855.02567644674,180.64516129032256
856.0257064776719,187.09677419354836
857.0257365086038,183.8709677419355
858.0257665395357,193.54838709677418
859.0257965704675,196.7741935483871
860.0258266013993,190.32258064516128
861.0258566323312,187.09677419354836
862.0258866632631,183.8709677419355
863.025916694195,174.19354838709677
864.0259467251268,174.19354838709677
865.0259767560586,180.64516129032256
866.0260067869905,183.8709677419355
867.0260368179223,180.64516129032256
868.0260668488543,174.19354838709677
869.0260968797861,174.19354838709677
870.026126910718,177.41935483870967
871.0261569416498,174.19354838709677
872.0261869725816,187.09677419354836
873.0262170035136,206.4516129032258
874.0262470344454,203.2258064516129
875.0262770653773,196.7741935483871
876.0263070963091,193.54838709677418
877.0263371272409,196.7741935483871
878.0263671581728,209.6774193548387
879.0263971891047,216.12903225806448
880.0264272200366,235.48387096774195
881.0264572509684,238.70967741935485
882.0264872819002,238.70967741935485
883.0265173128321,232.25806451612905
884.026547343764,222.5806451612903
885.0265773746959,222.5806451612903
886.0266074056277,219.3548387096774
887.0266374365596,219.3548387096774
888.0266674674914,219.3548387096774
889.0266974984232,222.5806451612903
890.0267275293552,229.0322580645161
891.026757560287,238.70967741935485
892.0267875912189,241.93548387096774
893.0268176221507,241.93548387096774
894.0268476530825,254.83870967741933
895.0268776840145,254.83870967741933
896.0269077149463,245.16129032258064
897.0269377458782,235.48387096774195
898.02696777681,241.93548387096774
899.0269978077419,245.16129032258064
900.0270278386737,245.16129032258064
901.0270578696056,235.48387096774195
902.0270879005375,219.3548387096774
903.0271179314693,209.6774193548387
904.0271479624012,199.99999999999997
905.027177993333,193.54838709677418
906.027208024265,180.64516129032256
907.0272380551968,180.64516129032256
908.0272680861286,180.64516129032256
909.0272981170605,180.64516129032256
910.0273281479923,183.8709677419355
911.0273581789241,187.09677419354836
912.0273882098561,183.8709677419355
913.0274182407879,183.8709677419355
914.0274482717198,180.64516129032256
915.0274783026516,170.96774193548387
916.0275083335835,158.06451612903226
917.0275383645154,141.93548387096774
918.0275683954472,132.258064516129
919.0275984263791,129.03225806451613
920.0276284573109,129.03225806451613
921.0276584882428,129.03225806451613
922.0276885191746,125.80645161290322
923.0277185501066,119.35483870967742
924.0277485810384,103.2258064516129
925.0277786119702,83.87096774193549
926.0278086429021,64.51612903225806
927.0278386738339,54.83870967741935
928.0278687047659,64.51612903225806
929.0278987356977,54.83870967741935
930.0279287666295,41.935483870967744
931.0279587975614,35.483870967741936
932.0279888284932,25.806451612903224
933.0280188594251,19.354838709677416
934.028048890357,9.677419354838708
935.0280789212889,9.677419354838708
936.0281089522207,16.129032258064516
937.0281389831525,22.58064516129032
938.0281690140844,25.806451612903224
939.0281990450163,25.806451612903224
940.0282290759482,22.58064516129032
941.02825910688,9.677419354838708
942.0282891378118,-3.225806451612903
943.0283191687437,-16.129032258064516
944.0283491996755,-35.483870967741936
945.0283792306075,-45.16129032258064
946.0284092615393,-48.387096774193544
947.0284392924711,-48.387096774193544
948.028469323403,-54.83870967741935
949.0284993543348,-70.96774193548387
950.0285293852668,-87.09677419354838
951.0285594161986,-96.77419354838709
952.0285894471305,-106.4516129032258
953.0286194780623,-112.9032258064516
954.0286495089941,-129.03225806451613
955.028679539926,-141.93548387096774
956.0287095708579,-125.80645161290322
957.0287396017898,-96.77419354838709
958.0287696327216,-93.54838709677418
959.0287996636534,-99.99999999999999
960.0288296945853,-99.99999999999999
961.0288597255172,-103.2258064516129
962.0288897564491,-106.4516129032258
963.0289197873809,-119.35483870967742
964.0289498183128,-129.03225806451613
965.0289798492446,-132.258064516129
966.0290098801764,-138.70967741935482
967.0290399111084,-125.80645161290322
968.0290699420402,-125.80645161290322
969.0290999729721,-125.80645161290322
970.0291300039039,-125.80645161290322
971.0291600348357,-129.03225806451613
972.0291900657677,-135.48387096774192
973.0292200966995,-138.70967741935482
974.0292501276314,-145.16129032258067
975.0292801585632,-145.16129032258067
976.029310189495,-141.93548387096774
977.0293402204269,-135.48387096774192
978.0293702513588,-138.70967741935482
979.0294002822907,-141.93548387096774
980.0294303132225,-141.93548387096774
981.0294603441544,-145.16129032258067
982.0294903750862,-145.16129032258067
983.0295204060182,-141.93548387096774
984.02955043695,-138.70967741935482
985.0295804678818,-138.70967741935482
986.0296104988137,-141.93548387096774
987.0296405297455,-145.16129032258067
988.0296705606773,-148.38709677419354
989.0297005916093,-154.83870967741933
990.0297306225411,-148.38709677419354
991.029760653473,-141.93548387096774
992.0297906844048,-141.93548387096774
993.0298207153367,-135.48387096774192
994.0298507462686,-132.258064516129
995.0298807772004,-138.70967741935482
996.0299108081323,-148.38709677419354
997.0299408390641,-161.29032258064515
998.029970869996,-164.51612903225805
999.0300009009278,-164.51612903225805
1000.0300309318598,-167.74193548387098
1001.0300609627916,-161.29032258064515
1002.0300909937234,-141.93548387096774
1003.0301210246553,-129.03225806451613
1004.0301510555871,-122.58064516129032
1005.0301810865191,-122.58064516129032
1006.0302111174509,-125.80645161290322
1007.0302411483827,-109.6774193548387
1008.0302711793146,-109.6774193548387
1009.0303012102464,-109.6774193548387
1010.0303312411783,-106.4516129032258
1011.0303612721102,-112.9032258064516
1012.030391303042,-119.35483870967742
1013.0304213339739,-129.03225806451613
1014.0304513649057,-135.48387096774192
1015.0304813958376,-132.258064516129
1016.0305114267695,-125.80645161290322
1017.0305414577014,-116.12903225806453
1018.0305714886332,-112.9032258064516
1019.030601519565,-109.6774193548387
1020.0306315504969,-99.99999999999999
1021.0306615814287,-99.99999999999999
1022.0306916123607,-99.99999999999999
1023.0307216432925,-103.2258064516129
1024.0307516742243,-116.12903225806453
1025.0307817051562,-112.9032258064516
1026.030811736088,-109.6774193548387
1027.0308417670199,-112.9032258064516
1028.0308717979517,-103.2258064516129
1029.0309018288835,-87.09677419354838
1030.0309318598156,-74.19354838709677
1031.0309618907474,-77.41935483870967
1032.0309919216793,-90.32258064516128
1033.0310219526111,-99.99999999999999
1034.031051983543,-99.99999999999999
1035.0310820144748,-93.54838709677418
1036.0311120454066,-90.32258064516128
1037.0311420763385,-83.87096774193549
1038.0311721072703,-80.64516129032258
1039.0312021382022,-80.64516129032258
1040.031232169134,-70.96774193548387
1041.031262200066,-64.51612903225806
1042.031292230998,-74.19354838709677
1043.0313222619297,-87.09677419354838
1044.0313522928616,-87.09677419354838
1045.0313823237934,-90.32258064516128
1046.0314123547253,-87.09677419354838
1047.031442385657,-70.96774193548387
1048.031472416589,-61.29032258064516
1049.0315024475208,-77.41935483870967
1050.0315324784526,-96.77419354838709
1051.0315625093845,-90.32258064516128
1052.0315925403165,-64.51612903225806
1053.0316225712484,-48.387096774193544
1054.0316526021802,-70.96774193548387
1055.031682633112,-83.87096774193549
1056.0317126640439,-90.32258064516128
1057.0317426949757,-87.09677419354838
1058.0317727259076,-48.387096774193544
1059.0318027568394,-25.806451612903224
1060.0318327877712,-12.903225806451612
1061.031862818703,-19.354838709677416
1062.031892849635,-38.70967741935483
1063.031922880567,-51.61290322580645
1064.0319529114988,-54.83870967741935
1065.0319829424307,-51.61290322580645
1066.0320129733625,-51.61290322580645
1067.0320430042943,-41.935483870967744
1068.0320730352262,-38.70967741935483
1069.032103066158,-41.935483870967744
1070.0321330970899,-41.935483870967744
1071.0321631280217,-54.83870967741935
1072.0321931589535,-38.70967741935483
1073.0322231898854,-38.70967741935483
1074.0322532208174,-51.61290322580645
1075.0322832517493,-58.06451612903226
1076.0323132826811,-51.61290322580645
1077.032343313613,-38.70967741935483
1078.0323733445448,-29.03225806451613
1079.0324033754766,-25.806451612903224
1080.0324334064085,-19.354838709677416
1081.0324634373403,-22.58064516129032
1082.0324934682722,-22.58064516129032
1083.032523499204,-32.25806451612903
1084.0325535301358,-41.935483870967744
1085.032583561068,-48.387096774193544
1086.0326135919997,-48.387096774193544
1087.0326436229316,-45.16129032258064
1088.0326736538634,-48.387096774193544
1089.0327036847953,-54.83870967741935
1090.032733715727,-51.61290322580645
1091.032763746659,-51.61290322580645
1092.0327937775908,-64.51612903225806
1093.0328238085226,-64.51612903225806
1094.0328538394544,-45.16129032258064
1095.0328838703863,-32.25806451612903
1096.0329139013184,-19.354838709677416
1097.0329439322502,-22.58064516129032
1098.032973963182,-25.806451612903224
1099.0330039941139,-25.806451612903224
1100.0330340250457,-22.58064516129032
1101.0330640559775,-19.354838709677416
1102.0330940869094,-19.354838709677416
1103.0331241178412,-16.129032258064516
1104.033154148773,-9.677419354838708
1105.033184179705,-9.677419354838708
1106.0332142106367,-16.129032258064516
1107.0332442415688,-22.58064516129032
1108.0332742725006,-19.354838709677416
1109.0333043034325,-22.58064516129032
1110.0333343343643,-25.806451612903224
1111.0333643652962,-25.806451612903224
1112.033394396228,-25.806451612903224
1113.0334244271598,-32.25806451612903
1114.0334544580917,-35.483870967741936
1115.0334844890235,-29.03225806451613
1116.0335145199554,-35.483870967741936
1117.0335445508872,-38.70967741935483
1118.0335745818193,-35.483870967741936
1119.033604612751,-35.483870967741936
1120.033634643683,-25.806451612903224
1121.0336646746148,-29.03225806451613
1122.0336947055466,-38.70967741935483
1123.0337247364785,-48.387096774193544
1124.0337547674103,-45.16129032258064
1125.0337847983421,-38.70967741935483
1126.033814829274,-38.70967741935483
1127.0338448602058,-41.935483870967744
1128.0338748911377,-51.61290322580645
1129.0339049220697,-51.61290322580645
1130.0339349530016,-45.16129032258064
1131.0339649839334,-38.70967741935483
1132.0339950148652,-22.58064516129032
1133.034025045797,-12.903225806451612
1134.034055076729,-12.903225806451612
1135.0340851076608,-19.354838709677416
1136.0341151385926,-22.58064516129032
1137.0341451695244,-19.354838709677416
1138.0341752004563,-12.903225806451612
1139.0342052313881,-22.58064516129032
1140.0342352623202,-32.25806451612903
1141.034265293252,-41.935483870967744
1142.0342953241839,-29.03225806451613
1143.0343253551157,-16.129032258064516
1144.0343553860475,-3.225806451612903
1145.0343854169794,6.451612903225806
1146.0344154479112,0.0
1147.034445478843,-19.354838709677416
1148.034475509775,-32.25806451612903
1149.0345055407067,-29.03225806451613
1150.0345355716386,-16.129032258064516
1151.0345656025706,-19.354838709677416
1152.0345956335025,-35.483870967741936
1153.0346256644343,-51.61290322580645
1154.0346556953662,-67.74193548387096
1155.034685726298,-70.96774193548387
1156.0347157572298,-77.41935483870967
1157.0347457881617,-74.19354838709677
1158.0347758190935,-51.61290322580645
1159.0348058500254,-29.03225806451613
1160.0348358809572,-3.225806451612903
1161.034865911889,9.677419354838708
1162.034895942821,12.903225806451612
1163.034925973753,6.451612903225806
1164.0349560046848,-6.451612903225806
1165.0349860356166,-22.58064516129032
1166.0350160665485,-25.806451612903224
1167.0350460974803,-16.129032258064516
1168.0350761284121,-19.354838709677416
1169.035106159344,-25.806451612903224
1170.0351361902758,-35.483870967741936
1171.0351662212076,-41.935483870967744
1172.0351962521395,-25.806451612903224
1173.0352262830716,-19.354838709677416
1174.0352563140034,-32.25806451612903
1175.0352863449352,-38.70967741935483
1176.035316375867,-25.806451612903224
1177.035346406799,-12.903225806451612
1178.0353764377307,-3.225806451612903
1179.0354064686626,-3.225806451612903
1180.0354364995944,0.0
1181.0354665305263,-6.451612903225806
1182.035496561458,-16.129032258064516
1183.03552659239,-22.58064516129032
1184.035556623322,-25.806451612903224
1185.0355866542538,-25.806451612903224
1186.0356166851857,-29.03225806451613
1187.0356467161175,-32.25806451612903
1188.0356767470494,-32.25806451612903
1189.0357067779812,-38.70967741935483
1190.035736808913,-41.935483870967744
1191.0357668398449,-45.16129032258064
1192.0357968707767,-48.387096774193544
1193.0358269017086,-48.387096774193544
1194.0358569326404,-41.935483870967744
1195.0358869635725,-32.25806451612903
1196.0359169945043,-25.806451612903224
1197.0359470254361,-25.806451612903224
1198.035977056368,-25.806451612903224
1199.0360070872998,-29.03225806451613
1200.0360371182317,-32.25806451612903
1201.0360671491635,-35.483870967741936
1202.0360971800953,-29.03225806451613
1203.0361272110272,-32.25806451612903
1204.036157241959,-41.935483870967744
1205.0361872728909,-41.935483870967744
1206.036217303823,-51.61290322580645
1207.0362473347548,-48.387096774193544
1208.0362773656866,-35.483870967741936
1209.0363073966184,-22.58064516129032
1210.0363374275503,-16.129032258064516
1211.0363674584821,-25.806451612903224
1212.036397489414,-35.483870967741936
1213.0364275203458,-45.16129032258064
1214.0364575512776,-48.387096774193544
1215.0364875822095,-35.483870967741936
1216.0365176131413,-32.25806451612903
1217.0365476440734,-41.935483870967744
1218.0365776750052,-38.70967741935483
1219.036607705937,-25.806451612903224
1220.036637736869,-19.354838709677416
1221.0366677678007,-22.58064516129032
1222.0366977987326,-19.354838709677416
1223.0367278296644,-9.677419354838708
1224.0367578605963,-6.451612903225806
1225.036787891528,-3.225806451612903
1226.03681792246,-6.451612903225806
1227.0368479533918,-9.677419354838708
1228.0368779843238,-12.903225806451612
1229.0369080152557,-22.58064516129032
1230.0369380461875,-19.354838709677416
1231.0369680771194,-25.806451612903224
1232.0369981080512,-25.806451612903224
1233.037028138983,-12.903225806451612
1234.0370581699149,-9.677419354838708
1235.0370882008467,-16.129032258064516
1236.0371182317785,-29.03225806451613
1237.0371482627104,-38.70967741935483
1238.0371782936422,-41.935483870967744
1239.0372083245743,-48.387096774193544
1240.0372383555061,-51.61290322580645
1241.037268386438,-48.387096774193544
1242.0372984173698,-45.16129032258064
1243.0373284483017,-22.58064516129032
1244.0373584792335,-6.451612903225806
1245.0373885101653,-6.451612903225806
1246.0374185410972,-6.451612903225806
1247.037448572029,0.0
1248.0374786029608,-3.225806451612903
1249.0375086338927,-6.451612903225806
1250.0375386648248,-9.677419354838708
1251.0375686957566,-35.483870967741936
1252.0375987266884,-61.29032258064516
1253.0376287576203,-80.64516129032258
1254.037658788552,-64.51612903225806
1255.037688819484,-38.70967741935483
1256.0377188504158,-12.903225806451612
1257.0377488813476,-9.677419354838708
1258.0377789122795,-12.903225806451612
1259.0378089432113,-3.225806451612903
1260.0378389741431,16.129032258064516
1261.0378690050752,38.70967741935483
1262.037899036007,45.16129032258064
1263.037929066939,48.387096774193544
1264.0379590978707,45.16129032258064
1265.0379891288026,38.70967741935483
1266.0380191597344,32.25806451612903
1267.0380491906662,22.58064516129032
1268.038079221598,6.451612903225806
1269.03810925253,16.129032258064516
1270.0381392834618,25.806451612903224
1271.0381693143936,25.806451612903224
1272.0381993453257,22.58064516129032
1273.0382293762575,16.129032258064516
1274.0382594071893,6.451612903225806
1275.0382894381212,3.225806451612903
1276.038319469053,6.451612903225806
1277.0383494999849,3.225806451612903
1278.0383795309167,0.0
1279.0384095618485,0.0
1280.0384395927804,6.451612903225806
1281.0384696237122,12.903225806451612
1282.038499654644,22.58064516129032
1283.0385296855761,32.25806451612903
1284.038559716508,32.25806451612903
1285.0385897474398,29.03225806451613
1286.0386197783716,29.03225806451613
1287.0386498093035,25.806451612903224
1288.0386798402353,22.58064516129032
1289.0387098711672,19.354838709677416
1290.038739902099,16.129032258064516
1291.0387699330308,3.225806451612903
1292.0387999639627,0.0
1293.0388299948945,0.0
1294.0388600258266,0.0
1295.0388900567584,0.0
1296.0389200876903,-6.451612903225806
1297.038950118622,-19.354838709677416
1298.038980149554,-25.806451612903224
1299.0390101804858,-22.58064516129032
1300.0390402114176,-12.903225806451612
1301.0390702423495,-12.903225806451612
1302.0391002732813,-25.806451612903224
1303.0391303042131,-38.70967741935483
1304.039160335145,-38.70967741935483
1305.039190366077,-35.483870967741936
1306.0392203970089,-41.935483870967744
1307.0392504279407,-54.83870967741935
1308.0392804588726,-64.51612903225806
1309.0393104898044,-64.51612903225806
1310.0393405207362,-70.96774193548387
1311.039370551668,-70.96774193548387
1312.0394005826,-67.74193548387096
1313.0394306135317,-64.51612903225806
1314.0394606444636,-64.51612903225806
1315.0394906753954,-61.29032258064516
1316.0395207063275,-54.83870967741935
1317.0395507372593,-54.83870967741935
1318.0395807681912,-58.06451612903226
1319.039610799123,-58.06451612903226
1320.0396408300549,-48.387096774193544
1321.0396708609867,-51.61290322580645
1322.0397008919185,-48.387096774193544
1323.0397309228504,-51.61290322580645
1324.0397609537822,-61.29032258064516
1325.039790984714,-41.935483870967744
1326.0398210156459,-35.483870967741936
1327.039851046578,-32.25806451612903
1328.0398810775098,-25.806451612903224
1329.0399111084416,-25.806451612903224
1330.0399411393735,-29.03225806451613
1331.0399711703053,-29.03225806451613
1332.0400012012371,-22.58064516129032
1333.040031232169,-16.129032258064516
1334.0400612631008,-12.903225806451612
1335.0400912940327,-9.677419354838708
1336.0401213249645,-12.903225806451612
1337.0401513558963,-16.129032258064516
1338.0401813868284,-25.806451612903224
1339.0402114177602,-38.70967741935483
1340.040241448692,-45.16129032258064
1341.040271479624,-38.70967741935483
1342.0403015105558,-29.03225806451613
1343.0403315414876,-19.354838709677416
1344.0403615724194,-22.58064516129032
1345.0403916033513,-22.58064516129032
1346.0404216342831,-22.58064516129032
1347.040451665215,-25.806451612903224
1348.0404816961468,-25.806451612903224
1349.0405117270789,-25.806451612903224
1350.0405417580107,-22.58064516129032
1351.0405717889425,-25.806451612903224
1352.0406018198744,-12.903225806451612
1353.0406318508062,16.129032258064516
1354.040661881738,41.935483870967744
1355.04069191267,93.54838709677418
1356.0407219436017,138.70967741935482
1357.0407519745336,164.51612903225805
1358.0407820054654,180.64516129032256
1359.0408120363973,183.8709677419355
1360.0408420673293,199.99999999999997
1361.0408720982612,216.12903225806448
1362.040902129193,232.25806451612905
1363.0409321601248,254.83870967741933
1364.0409621910567,274.19354838709677
1365.0409922219885,290.32258064516134
1366.0410222529204,309.67741935483866
1367.0410522838522,322.5806451612903
1368.041082314784,338.7096774193548
1369.0411123457159,354.83870967741933
1370.0411423766477,383.8709677419355
1371.0411724075798,390.3225806451613
1372.0412024385116,387.09677419354836
1373.0412324694435,367.741935483871
1374.0412625003753,351.61290322580646
1375.0412925313071,329.0322580645161
1376.041322562239,300.0
1377.0413525931708,270.96774193548384
1378.0413826241027,232.25806451612905
1379.0414126550345,183.8709677419355
1380.0414426859663,125.80645161290322
1381.0414727168982,51.61290322580645
1382.0415027478302,-9.677419354838708
1383.041532778762,-80.64516129032258
1384.041562809694,-164.51612903225805
1385.0415928406258,-245.16129032258064
1386.0416228715576,-316.1290322580645
1387.0416529024894,-390.3225806451613
1388.0416829334213,-461.2903225806451
1389.041712964353,-529.032258064516
1390.041742995285,-593.5483870967741
1391.0417730262168,-635.4838709677418
1392.0418030571486,-664.5161290322579
1393.0418330880807,-696.7741935483871
1394.0418631190125,-719.3548387096774
1395.0418931499444,-735.483870967742
1396.0419231808762,-745.1612903225806
1397.041953211808,-738.7096774193548
1398.04198324274,-722.5806451612902
1399.0420132736717,-703.2258064516129
1400.0420433046036,-677.4193548387096
1401.0420733355354,-641.9354838709677
1402.0421033664672,-616.1290322580645
1403.042133397399,-590.3225806451613
1404.0421634283312,-567.741935483871
1405.042193459263,-525.8064516129032
1406.0422234901948,-474.19354838709677
1407.0422535211267,-438.7096774193548
1408.0422835520585,-403.22580645161287
1409.0423135829903,-377.41935483870964
1410.0423436139222,-348.38709677419354
1411.042373644854,-325.8064516129032
1412.0424036757859,-293.54838709677415
1413.0424337067177,-254.83870967741933
1414.0424637376495,-216.12903225806448
1415.0424937685816,-174.19354838709677
1416.0425237995134,-148.38709677419354
1417.0425538304453,-132.258064516129
1418.0425838613771,-109.6774193548387
1419.042613892309,-87.09677419354838
1420.0426439232408,-74.19354838709677
1421.0426739541726,-54.83870967741935
1422.0427039851045,-35.483870967741936
1423.0427340160363,-29.03225806451613
1424.0427640469682,-16.129032258064516
1425.0427940779,6.451612903225806
1426.042824108832,19.354838709677416
1427.042854139764,45.16129032258064
1428.0428841706957,67.74193548387096
1429.0429142016276,87.09677419354838
1430.0429442325594,90.32258064516128
1431.0429742634913,93.54838709677418
1432.043004294423,109.6774193548387
1433.043034325355,116.12903225806453
1434.0430643562868,99.99999999999999
1435.0430943872186,77.41935483870967
1436.0431244181505,83.87096774193549
1437.0431544490825,106.4516129032258
1438.0431844800144,132.258064516129
1439.0432145109462,161.29032258064515
1440.043244541878,174.19354838709677
1441.0432745728099,167.74193548387098
1442.0433046037417,154.83870967741933
1443.0433346346736,151.61290322580646
1444.0433646656054,154.83870967741933
1445.0433946965372,151.61290322580646
1446.043424727469,148.38709677419354
1447.043454758401,141.93548387096774
1448.043484789333,145.16129032258067
1449.0435148202648,154.83870967741933
1450.0435448511967,167.74193548387098
1451.0435748821285,167.74193548387098
1452.0436049130603,161.29032258064515
1453.0436349439922,145.16129032258067
1454.043664974924,132.258064516129
1455.0436950058559,125.80645161290322
1456.0437250367877,112.9032258064516
1457.0437550677195,106.4516129032258
1458.0437850986514,119.35483870967742
1459.0438151295834,145.16129032258067
1460.0438451605153,170.96774193548387
1461.0438751914471,180.64516129032256
1462.043905222379,177.41935483870967
1463.0439352533108,164.51612903225805
1464.0439652842426,145.16129032258067
1465.0439953151745,148.38709677419354
1466.0440253461063,148.38709677419354
1467.0440553770381,145.16129032258067
1468.04408540797,148.38709677419354
1469.0441154389018,141.93548387096774
1470.044145469834,135.48387096774192
1471.0441755007657,122.58064516129032
1472.0442055316976,109.6774193548387
1473.0442355626294,93.54838709677418
1474.0442655935612,96.77419354838709
1475.044295624493,112.9032258064516
1476.044325655425,122.58064516129032
1477.0443556863568,129.03225806451613
1478.0443857172886,122.58064516129032
1479.0444157482204,122.58064516129032
1480.0444457791523,125.80645161290322
1481.0444758100844,122.58064516129032
1482.0445058410162,125.80645161290322
1483.044535871948,129.03225806451613
1484.0445659028799,122.58064516129032
1485.0445959338117,122.58064516129032
1486.0446259647435,125.80645161290322
1487.0446559956754,122.58064516129032
1488.0446860266072,112.9032258064516
1489.044716057539,106.4516129032258
1490.044746088471,103.2258064516129
1491.0447761194027,99.99999999999999
1492.0448061503348,106.4516129032258
1493.0448361812666,119.35483870967742
1494.0448662121985,116.12903225806453
1495.0448962431303,119.35483870967742
1496.0449262740622,122.58064516129032
1497.044956304994,129.03225806451613
1498.0449863359258,135.48387096774192
1499.0450163668577,132.258064516129
1500.0450463977895,129.03225806451613
1501.0450764287214,129.03225806451613
1502.0451064596532,129.03225806451613
1503.0451364905853,129.03225806451613
1504.045166521517,129.03225806451613
1505.045196552449,129.03225806451613
1506.0452265833808,129.03225806451613
1507.0452566143126,119.35483870967742
1508.0452866452445,109.6774193548387
1509.0453166761763,109.6774193548387
1510.0453467071081,116.12903225806453
1511.04537673804,122.58064516129032
1512.0454067689718,122.58064516129032
1513.0454367999037,125.80645161290322
1514.0454668308357,129.03225806451613
1515.0454968617676,132.258064516129
1516.0455268926994,125.80645161290322
1517.0455569236312,106.4516129032258
1518.045586954563,96.77419354838709
1519.045616985495,96.77419354838709
1520.0456470164268,112.9032258064516
1521.0456770473586,135.48387096774192
1522.0457070782904,145.16129032258067
1523.0457371092223,158.06451612903226
1524.045767140154,177.41935483870967
1525.0457971710862,196.7741935483871
1526.045827202018,203.2258064516129
1527.0458572329499,190.32258064516128
1528.0458872638817,174.19354838709677
1529.0459172948135,158.06451612903226
1530.0459473257454,145.16129032258067
1531.0459773566772,145.16129032258067
1532.046007387609,154.83870967741933
1533.046037418541,164.51612903225805
1534.0460674494727,170.96774193548387
1535.0460974804046,177.41935483870967
1536.0461275113366,180.64516129032256
1537.0461575422685,183.8709677419355
1538.0461875732003,190.32258064516128
1539.0462176041322,183.8709677419355
1540.046247635064,190.32258064516128
1541.0462776659958,187.09677419354836
1542.0463076969277,180.64516129032256
1543.0463377278595,177.41935483870967
1544.0463677587913,174.19354838709677
1545.0463977897232,199.99999999999997
1546.046427820655,216.12903225806448
1547.0464578515869,212.9032258064516
1548.046487882519,199.99999999999997
1549.0465179134508,193.54838709677418
1550.0465479443826,193.54838709677418
1551.0465779753144,193.54838709677418
1552.0466080062463,199.99999999999997
1553.0466380371781,199.99999999999997
1554.04666806811,196.7741935483871
1555.0466980990418,187.09677419354836
1556.0467281299736,190.32258064516128
1557.0467581609055,183.8709677419355
1558.0467881918373,174.19354838709677
1559.0468182227694,177.41935483870967
1560.0468482537012,180.64516129032256
1561.046878284633,174.19354838709677
1562.046908315565,164.51612903225805
1563.0469383464967,164.51612903225805
1564.0469683774286,161.29032258064515
1565.0469984083604,164.51612903225805
1566.0470284392923,167.74193548387098
1567.047058470224,164.51612903225805
1568.047088501156,154.83870967741933
1569.0471185320878,141.93548387096774
1570.0471485630198,135.48387096774192
1571.0471785939517,132.258064516129
1572.0472086248835,122.58064516129032
1573.0472386558154,112.9032258064516
1574.0472686867472,106.4516129032258
1575.047298717679,99.99999999999999
1576.0473287486109,99.99999999999999
1577.0473587795427,103.2258064516129
1578.0473888104746,109.6774193548387
1579.0474188414064,106.4516129032258
1580.0474488723382,90.32258064516128
1581.0474789032703,77.41935483870967
1582.0475089342021,67.74193548387096
1583.047538965134,64.51612903225806
1584.0475689960658,67.74193548387096
1585.0475990269977,74.19354838709677
1586.0476290579295,67.74193548387096
1587.0476590888613,54.83870967741935
1588.0476891197932,41.935483870967744
1589.047719150725,29.03225806451613
1590.0477491816569,19.354838709677416
1591.0477792125887,0.0
1592.0478092435208,-9.677419354838708
1593.0478392744526,-6.451612903225806
1594.0478693053844,3.225806451612903
1595.0478993363163,9.677419354838708
1596.0479293672481,6.451612903225806
1597.04795939818,-3.225806451612903
1598.0479894291118,-12.903225806451612
1599.0480194600436,-25.806451612903224
1600.0480494909755,-29.03225806451613
1601.0480795219073,-41.935483870967744
1602.0481095528392,-51.61290322580645
1603.0481395837712,-58.06451612903226
1604.048169614703,-58.06451612903226
1605.048199645635,-64.51612903225806
1606.0482296765667,-67.74193548387096
1607.0482597074986,-77.41935483870967
1608.0482897384304,-80.64516129032258
1609.0483197693623,-80.64516129032258
1610.048349800294,-67.74193548387096
1611.048379831226,-67.74193548387096
1612.0484098621578,-74.19354838709677
1613.0484398930896,-74.19354838709677
1614.0484699240217,-87.09677419354838
1615.0484999549535,-109.6774193548387
1616.0485299858854,-129.03225806451613
1617.0485600168172,-129.03225806451613
1618.048590047749,-116.12903225806453
1619.0486200786809,-119.35483870967742
1620.0486501096127,-119.35483870967742
1621.0486801405445,-125.80645161290322
1622.0487101714764,-138.70967741935482
1623.0487402024082,-154.83870967741933
1624.04877023334,-170.96774193548387
1625.0488002642721,-180.64516129032256
1626.048830295204,-158.06451612903226
1627.0488603261358,-138.70967741935482
1628.0488903570676,-138.70967741935482
1629.0489203879995,-129.03225806451613
1630.0489504189313,-129.03225806451613
1631.0489804498632,-129.03225806451613
1632.049010480795,-122.58064516129032
1633.0490405117268,-122.58064516129032
1634.0490705426587,-119.35483870967742
1635.0491005735905,-116.12903225806453
1636.0491306045226,-119.35483870967742
1637.0491606354544,-119.35483870967742
1638.0491906663863,-109.6774193548387
1639.049220697318,-112.9032258064516
1640.04925072825,-132.258064516129
1641.0492807591818,-151.61290322580646
1642.0493107901136,-158.06451612903226
1643.0493408210455,-148.38709677419354
1644.0493708519773,-141.93548387096774
1645.0494008829091,-135.48387096774192
1646.049430913841,-141.93548387096774
1647.049460944773,-132.258064516129
1648.0494909757049,-129.03225806451613
1649.0495210066367,-122.58064516129032
1650.0495510375686,-122.58064516129032
1651.0495810685004,-135.48387096774192
1652.0496110994322,-145.16129032258067
1653.049641130364,-145.16129032258067
1654.049671161296,-141.93548387096774
1655.0497011922278,-138.70967741935482
1656.0497312231596,-135.48387096774192
1657.0497612540914,-138.70967741935482
1658.0497912850235,-135.48387096774192
1659.0498213159553,-135.48387096774192
1660.0498513468872,-132.258064516129
1661.049881377819,-125.80645161290322
1662.0499114087509,-125.80645161290322
1663.0499414396827,-138.70967741935482
1664.0499714706145,-145.16129032258067
1665.0500015015464,-145.16129032258067
1666.0500315324782,-145.16129032258067
1667.05006156341,-151.61290322580646
1668.050091594342,-145.16129032258067
1669.050121625274,-145.16129032258067
1670.0501516562058,-141.93548387096774
1671.0501816871376,-141.93548387096774
1672.0502117180695,-138.70967741935482
1673.0502417490013,-132.258064516129
1674.0502717799332,-132.258064516129
1675.050301810865,-129.03225806451613
1676.0503318417968,-129.03225806451613
1677.0503618727287,-125.80645161290322
1678.0503919036605,-119.35483870967742
1679.0504219345924,-122.58064516129032
1680.0504519655244,-129.03225806451613
1681.0504819964563,-125.80645161290322
1682.050512027388,-122.58064516129032
1683.05054205832,-122.58064516129032
1684.0505720892518,-122.58064516129032
1685.0506021201836,-116.12903225806453
1686.0506321511155,-112.9032258064516
1687.0506621820473,-116.12903225806453
1688.0506922129791,-112.9032258064516
1689.050722243911,-122.58064516129032
1690.0507522748428,-112.9032258064516
1691.0507823057749,-103.2258064516129
1692.0508123367067,-93.54838709677418
1693.0508423676386,-87.09677419354838
1694.0508723985704,-83.87096774193549
1695.0509024295022,-80.64516129032258
1696.050932460434,-83.87096774193549
1697.050962491366,-93.54838709677418
1698.0509925222977,-99.99999999999999
1699.0510225532296,-99.99999999999999
1700.0510525841614,-90.32258064516128
1701.0510826150933,-83.87096774193549
1702.0511126460253,-77.41935483870967
1703.0511426769572,-70.96774193548387
1704.051172707889,-70.96774193548387
1705.0512027388208,-61.29032258064516
1706.0512327697527,-54.83870967741935
1707.0512628006845,-54.83870967741935
1708.0512928316164,-64.51612903225806
1709.0513228625482,-64.51612903225806
1710.05135289348,-54.83870967741935
1711.0513829244119,-54.83870967741935
1712.0514129553437,-67.74193548387096
1713.0514429862758,-74.19354838709677
1714.0514730172076,-87.09677419354838
1715.0515030481395,-99.99999999999999
1716.0515330790713,-93.54838709677418
1717.0515631100031,-87.09677419354838
1718.051593140935,-80.64516129032258
1719.0516231718668,-77.41935483870967
1720.0516532027987,-64.51612903225806
1721.0516832337305,-41.935483870967744
1722.0517132646623,-35.483870967741936
1723.0517432955942,-22.58064516129032
1724.0517733265262,-9.677419354838708
1725.051803357458,-9.677419354838708
1726.05183338839,-22.58064516129032
1727.0518634193218,-41.935483870967744
1728.0518934502536,-35.483870967741936
1729.0519234811854,-38.70967741935483
1730.0519535121173,-32.25806451612903
1731.0519835430491,-6.451612903225806
1732.052013573981,-9.677419354838708
1733.0520436049128,-16.129032258064516
1734.0520736358446,-22.58064516129032
1735.0521036667767,-29.03225806451613
1736.0521336977085,-35.483870967741936
1737.0521637286404,-41.935483870967744
1738.0521937595722,-51.61290322580645
1739.052223790504,-54.83870967741935
1740.052253821436,-51.61290322580645
1741.0522838523677,-48.387096774193544
1742.0523138832996,-41.935483870967744
1743.0523439142314,-38.70967741935483
1744.0523739451633,-35.483870967741936
1745.052403976095,-45.16129032258064
1746.0524340070272,-41.935483870967744
1747.052464037959,-38.70967741935483
1748.0524940688908,-35.483870967741936
1749.0525240998227,-25.806451612903224
1750.0525541307545,-6.451612903225806
1751.0525841616864,-9.677419354838708
1752.0526141926182,-25.806451612903224
1753.05264422355,-38.70967741935483
1754.0526742544819,-48.387096774193544
1755.0527042854137,-48.387096774193544
1756.0527343163455,-41.935483870967744
1757.0527643472776,-35.483870967741936
1758.0527943782095,-22.58064516129032
1759.0528244091413,-6.451612903225806
1760.0528544400731,-6.451612903225806
1761.052884471005,-12.903225806451612
1762.0529145019368,-16.129032258064516
1763.0529445328687,-9.677419354838708
1764.0529745638005,-19.354838709677416
1765.0530045947323,-29.03225806451613
1766.0530346256642,-32.25806451612903
1767.053064656596,-38.70967741935483
1768.053094687528,-41.935483870967744
1769.05312471846,-45.16129032258064
1770.0531547493918,-45.16129032258064
1771.0531847803236,-48.387096774193544
1772.0532148112554,-51.61290322580645
1773.0532448421873,-48.387096774193544
1774.053274873119,-54.83870967741935
1775.053304904051,-61.29032258064516
1776.0533349349828,-58.06451612903226
1777.0533649659146,-45.16129032258064
1778.0533949968465,-38.70967741935483
1779.0534250277785,-35.483870967741936
1780.0534550587104,-35.483870967741936
1781.0534850896422,-32.25806451612903
1782.053515120574,-25.806451612903224
1783.053545151506,-25.806451612903224
1784.0535751824377,-29.03225806451613
1785.0536052133696,-22.58064516129032
1786.0536352443014,-22.58064516129032
1787.0536652752332,-25.806451612903224
1788.053695306165,-22.58064516129032
1789.053725337097,-25.806451612903224
1790.053755368029,-29.03225806451613
1791.0537853989608,-32.25806451612903
1792.0538154298927,-35.483870967741936
1793.0538454608245,-35.483870967741936
1794.0538754917563,-41.935483870967744
1795.0539055226882,-48.387096774193544
1796.05393555362,-41.935483870967744
1797.0539655845519,-32.25806451612903
1798.0539956154837,-38.70967741935483
1799.0540256464155,-48.387096774193544
1800.0540556773474,-58.06451612903226
1801.0540857082794,-61.29032258064516
1802.0541157392113,-58.06451612903226
1803.0541457701431,-51.61290322580645
1804.054175801075,-48.387096774193544
1805.0542058320068,-41.935483870967744
1806.0542358629386,-41.935483870967744
1807.0542658938705,-41.935483870967744
1808.0542959248023,-41.935483870967744
1809.0543259557342,-29.03225806451613
1810.054355986666,-25.806451612903224
1811.0543860175978,-29.03225806451613
1812.05441604853,-29.03225806451613
1813.0544460794617,-25.806451612903224
1814.0544761103936,-12.903225806451612
1815.0545061413254,-12.903225806451612
1816.0545361722573,-25.806451612903224
1817.054566203189,-41.935483870967744
1818.054596234121,-38.70967741935483
1819.0546262650528,-38.70967741935483
1820.0546562959846,-41.935483870967744
1821.0546863269165,-25.806451612903224
1822.0547163578483,-16.129032258064516
1823.0547463887804,-12.903225806451612
1824.0547764197122,-22.58064516129032
1825.054806450644,-22.58064516129032
1826.0548364815759,-25.806451612903224
1827.0548665125077,-16.129032258064516
1828.0548965434396,0.0
1829.0549265743714,-3.225806451612903
1830.0549566053032,3.225806451612903
1831.054986636235,3.225806451612903
1832.055016667167,-6.451612903225806
1833.0550466980987,-9.677419354838708
1834.0550767290308,-16.129032258064516
1835.0551067599627,-22.58064516129032
1836.0551367908945,-35.483870967741936
1837.0551668218263,-51.61290322580645
1838.0551968527582,-61.29032258064516
1839.05522688369,-58.06451612903226
1840.0552569146219,-35.483870967741936
1841.0552869455537,-29.03225806451613
1842.0553169764855,-25.806451612903224
1843.0553470074174,-25.806451612903224
1844.0553770383492,-22.58064516129032
1845.0554070692813,-9.677419354838708
1846.055437100213,-9.677419354838708
1847.055467131145,-3.225806451612903
1848.0554971620768,9.677419354838708
1849.0555271930086,6.451612903225806
1850.0555572239405,0.0
1851.0555872548723,-16.129032258064516
1852.0556172858041,-41.935483870967744
1853.055647316736,-51.61290322580645
1854.0556773476678,-41.935483870967744
1855.0557073785997,-19.354838709677416
1856.0557374095317,-6.451612903225806
1857.0557674404636,-9.677419354838708
1858.0557974713954,-3.225806451612903
1859.0558275023272,12.903225806451612
1860.055857533259,35.483870967741936
1861.055887564191,41.935483870967744
1862.0559175951228,35.483870967741936
1863.0559476260546,16.129032258064516
1864.0559776569864,0.0
1865.0560076879183,3.225806451612903
1866.0560377188501,0.0
1867.0560677497822,-3.225806451612903
1868.056097780714,-6.451612903225806
1869.0561278116459,-9.677419354838708
1870.0561578425777,-9.677419354838708
1871.0561878735095,-12.903225806451612
1872.0562179044414,-6.451612903225806
1873.0562479353732,-3.225806451612903
1874.056277966305,0.0
1875.056307997237,0.0
1876.0563380281687,-6.451612903225806
1877.0563680591006,-9.677419354838708
1878.0563980900326,-3.225806451612903
1879.0564281209645,0.0
1880.0564581518963,0.0
1881.0564881828282,-3.225806451612903
1882.05651821376,-9.677419354838708
1883.0565482446918,-12.903225806451612
1884.0565782756237,-19.354838709677416
1885.0566083065555,-25.806451612903224
1886.0566383374874,-19.354838709677416
1887.0566683684192,-12.903225806451612
1888.056698399351,-12.903225806451612
1889.056728430283,-6.451612903225806
1890.056758461215,-6.451612903225806
1891.0567884921468,-9.677419354838708
1892.0568185230786,-25.806451612903224
1893.0568485540105,-22.58064516129032
1894.0568785849423,-16.129032258064516
1895.0569086158741,0.0
1896.056938646806,3.225806451612903
1897.0569686777378,6.451612903225806
1898.0569987086697,0.0
1899.0570287396015,-3.225806451612903
1900.0570587705336,0.0
1901.0570888014654,6.451612903225806
1902.0571188323972,19.354838709677416
1903.057148863329,19.354838709677416
1904.057178894261,3.225806451612903
1905.0572089251928,-9.677419354838708
1906.0572389561246,0.0
1907.0572689870564,25.806451612903224
1908.0572990179883,38.70967741935483
1909.05732904892,38.70967741935483
1910.057359079852,38.70967741935483
1911.057389110784,35.483870967741936
1912.0574191417159,29.03225806451613
1913.0574491726477,22.58064516129032
1914.0574792035795,35.483870967741936
1915.0575092345114,38.70967741935483
1916.0575392654432,35.483870967741936
1917.057569296375,45.16129032258064
1918.057599327307,51.61290322580645
1919.0576293582387,54.83870967741935
1920.0576593891706,54.83870967741935
1921.0576894201024,48.387096774193544
1922.0577194510345,41.935483870967744
1923.0577494819663,41.935483870967744
1924.0577795128982,41.935483870967744
1925.05780954383,32.25806451612903
1926.0578395747618,19.354838709677416
1927.0578696056937,9.677419354838708
1928.0578996366255,3.225806451612903
1929.0579296675573,3.225806451612903
1930.0579596984892,3.225806451612903
1931.057989729421,-12.903225806451612
1932.0580197603529,-32.25806451612903
1933.058049791285,-51.61290322580645
1934.0580798222168,-70.96774193548387
1935.0581098531486,-74.19354838709677
1936.0581398840804,-51.61290322580645
1937.0581699150123,-41.935483870967744
1938.0581999459441,-32.25806451612903
1939.058229976876,-16.129032258064516
1940.0582600078078,3.225806451612903
1941.0582900387396,16.129032258064516
1942.0583200696715,22.58064516129032
1943.0583501006033,12.903225806451612
1944.0583801315354,9.677419354838708
1945.0584101624672,3.225806451612903
1946.058440193399,-9.677419354838708
1947.058470224331,-9.677419354838708
1948.0585002552627,-3.225806451612903
1949.0585302861946,-3.225806451612903
1950.0585603171264,-3.225806451612903
1951.0585903480583,-16.129032258064516
1952.05862037899,0.0
1953.058650409922,3.225806451612903
1954.0586804408538,-6.451612903225806
1955.0587104717858,-9.677419354838708
1956.0587405027177,-9.677419354838708
1957.0587705336495,-6.451612903225806
1958.0588005645814,-9.677419354838708
1959.0588305955132,-25.806451612903224
1960.058860626445,-25.806451612903224
1961.0588906573769,-12.903225806451612
1962.0589206883087,-9.677419354838708
1963.0589507192406,-9.677419354838708
1964.0589807501724,-19.354838709677416
1965.0590107811042,-25.806451612903224
1966.0590408120363,-25.806451612903224
1967.0590708429681,-16.129032258064516
1968.0591008739,-6.451612903225806
1969.0591309048318,-6.451612903225806
1970.0591609357637,-3.225806451612903
1971.0591909666955,-3.225806451612903
1972.0592209976273,3.225806451612903
1973.0592510285592,6.451612903225806
1974.059281059491,9.677419354838708
1975.0593110904229,9.677419354838708
1976.0593411213547,6.451612903225806
1977.0593711522868,3.225806451612903
1978.0594011832186,6.451612903225806
1979.0594312141504,6.451612903225806
1980.0594612450823,16.129032258064516
1981.0594912760141,25.806451612903224
1982.059521306946,32.25806451612903
1983.0595513378778,29.03225806451613
1984.0595813688096,38.70967741935483
1985.0596113997415,64.51612903225806
1986.0596414306733,83.87096774193549
1987.0596714616051,93.54838709677418
1988.0597014925372,103.2258064516129
1989.059731523469,119.35483870967742
1990.059761554401,138.70967741935482
1991.0597915853327,161.29032258064515
1992.0598216162646,183.8709677419355
1993.0598516471964,212.9032258064516
1994.0598816781282,241.93548387096774
1995.05991170906,270.96774193548384
1996.059941739992,296.7741935483871
1997.0599717709238,309.67741935483866
1998.0600018018556,312.9032258064516
1999.0600318327877,316.1290322580645
2000.0600618637195,322.5806451612903
2001.0600918946514,325.8064516129032
2002.0601219255832,329.0322580645161
2003.060151956515,329.0322580645161
2004.0601819874469,338.7096774193548
2005.0602120183787,322.5806451612903
2006.0602420493105,283.8709677419355
2007.0602720802424,254.83870967741933
2008.0603021111742,219.3548387096774
2009.060332142106,170.96774193548387
2010.0603621730381,112.9032258064516
2011.06039220397,54.83870967741935
2012.0604222349018,0.0
2013.0604522658336,-61.29032258064516
2014.0604822967655,-132.258064516129
2015.0605123276973,-193.54838709677418
2016.0605423586292,-251.61290322580643
2017.060572389561,-312.9032258064516
2018.0606024204928,-374.1935483870967
2019.0606324514247,-441.9354838709677
2020.0606624823565,-503.22580645161287
2021.0606925132886,-554.8387096774193
2022.0607225442204,-580.6451612903227
2023.0607525751523,-619.3548387096773
2024.060782606084,-648.3870967741935
2025.060812637016,-645.1612903225806
2026.0608426679478,-641.9354838709677
2027.0608726988796,-638.7096774193548
2028.0609027298115,-641.9354838709677
2029.0609327607433,-645.1612903225806
2030.0609627916751,-619.3548387096773
2031.060992822607,-590.3225806451613
2032.061022853539,-561.290322580645
2033.0610528844709,-535.4838709677418
2034.0610829154027,-512.9032258064516
2035.0611129463346,-470.9677419354839
2036.0611429772664,-419.3548387096774
2037.0611730081982,-383.8709677419355
2038.06120303913,-354.83870967741933
2039.061233070062,-329.0322580645161
2040.0612631009938,-306.4516129032258
2041.0612931319256,-283.8709677419355
2042.0613231628574,-267.7419354838709
2043.0613531937895,-245.16129032258064
2044.0613832247213,-222.5806451612903
2045.0614132556532,-199.99999999999997
2046.061443286585,-167.74193548387098
2047.0614733175169,-135.48387096774192
2048.0615033484487,-116.12903225806453
2049.0615333793808,-96.77419354838709
2050.0615634103124,-64.51612903225806
2051.0615934412444,-58.06451612903226
2052.061623472176,-45.16129032258064
2053.061653503108,-25.806451612903224
2054.0616835340397,-9.677419354838708
2055.061713564972,6.451612903225806
2056.0617435959034,16.129032258064516
2057.0617736268355,35.483870967741936
2058.061803657767,74.19354838709677
2059.061833688699,103.2258064516129
2060.061863719631,116.12903225806453
2061.061893750563,119.35483870967742
2062.061923781495,119.35483870967742
2063.0619538124265,119.35483870967742
2064.0619838433586,116.12903225806453
2065.06201387429,112.9032258064516
2066.0620439052223,112.9032258064516
2067.062073936154,119.35483870967742
2068.062103967086,125.80645161290322
2069.0621339980175,129.03225806451613
2070.0621640289496,138.70967741935482
2071.0621940598817,154.83870967741933
2072.0622240908133,167.74193548387098
2073.0622541217454,174.19354838709677
2074.062284152677,170.96774193548387
2075.062314183609,164.51612903225805
2076.0623442145406,164.51612903225805
2077.0623742454727,158.06451612903226
2078.0624042764043,154.83870967741933
2079.0624343073364,141.93548387096774
2080.062464338268,132.258064516129
2081.0624943692,132.258064516129
2082.062524400132,135.48387096774192
2083.0625544310637,129.03225806451613
2084.062584461996,122.58064516129032
2085.0626144929274,122.58064516129032
2086.0626445238595,122.58064516129032
2087.062674554791,116.12903225806453
2088.062704585723,119.35483870967742
2089.062734616655,125.80645161290322
2090.062764647587,129.03225806451613
2091.0627946785185,119.35483870967742
2092.0628247094505,125.80645161290322
2093.0628547403826,138.70967741935482
2094.062884771314,129.03225806451613
2095.0629148022463,119.35483870967742
2096.062944833178,125.80645161290322
2097.06297486411,138.70967741935482
2098.0630048950416,145.16129032258067
2099.0630349259736,154.83870967741933
2100.0630649569052,164.51612903225805
2101.0630949878373,164.51612903225805
2102.063125018769,158.06451612903226
2103.063155049701,154.83870967741933
2104.063185080633,141.93548387096774
2105.0632151115647,135.48387096774192
2106.0632451424967,148.38709677419354
2107.0632751734283,170.96774193548387
2108.0633052043604,183.8709677419355
2109.063335235292,174.19354838709677
2110.063365266224,164.51612903225805
2111.0633952971557,158.06451612903226
2112.0634253280878,158.06451612903226
2113.0634553590194,158.06451612903226
2114.0634853899514,148.38709677419354
2115.0635154208835,141.93548387096774
2116.063545451815,138.70967741935482
2117.063575482747,145.16129032258067
2118.063605513679,151.61290322580646
2119.063635544611,145.16129032258067
2120.0636655755425,135.48387096774192
2121.0636956064745,129.03225806451613
2122.063725637406,141.93548387096774
2123.063755668338,141.93548387096774
2124.06378569927,125.80645161290322
2125.063815730202,119.35483870967742
2126.063845761134,119.35483870967742
2127.0638757920656,129.03225806451613
2128.0639058229976,138.70967741935482
2129.0639358539293,148.38709677419354
2130.0639658848613,170.96774193548387
2131.063995915793,170.96774193548387
2132.064025946725,158.06451612903226
2133.0640559776566,141.93548387096774
2134.0640860085887,129.03225806451613
2135.0641160395203,119.35483870967742
2136.0641460704524,109.6774193548387
2137.0641761013844,103.2258064516129
2138.064206132316,112.9032258064516
2139.064236163248,125.80645161290322
2140.0642661941797,132.258064516129
2141.064296225112,135.48387096774192
2142.0643262560434,141.93548387096774
2143.0643562869755,141.93548387096774
2144.064386317907,138.70967741935482
2145.064416348839,141.93548387096774
2146.0644463797707,141.93548387096774
2147.064476410703,141.93548387096774
2148.064506441635,148.38709677419354
2149.0645364725665,154.83870967741933
2150.0645665034986,164.51612903225805
2151.06459653443,170.96774193548387
2152.0646265653622,170.96774193548387
2153.064656596294,164.51612903225805
2154.064686627226,164.51612903225805
2155.0647166581575,164.51612903225805
2156.0647466890896,154.83870967741933
2157.064776720021,154.83870967741933
2158.0648067509533,164.51612903225805
2159.0648367818853,170.96774193548387
2160.064866812817,164.51612903225805
2161.064896843749,154.83870967741933
2162.0649268746806,158.06451612903226
2163.0649569056127,167.74193548387098
2164.0649869365443,180.64516129032256
2165.0650169674764,187.09677419354836
2166.065046998408,187.09677419354836
2167.06507702934,203.2258064516129
2168.0651070602717,209.6774193548387
2169.0651370912037,209.6774193548387
2170.065167122136,212.9032258064516
2171.0651971530674,209.6774193548387
2172.0652271839995,212.9032258064516
2173.065257214931,212.9032258064516
2174.065287245863,206.4516129032258
2175.0653172767948,209.6774193548387
2176.065347307727,193.54838709677418
2177.0653773386584,196.7741935483871
2178.0654073695905,199.99999999999997
2179.065437400522,196.7741935483871
2180.065467431454,199.99999999999997
2181.0654974623862,203.2258064516129
2182.065527493318,206.4516129032258
2183.06555752425,206.4516129032258
2184.0655875551815,225.8064516129032
2185.0656175861136,238.70967741935485
2186.065647617045,232.25806451612905
2187.0656776479773,219.3548387096774
2188.065707678909,209.6774193548387
2189.065737709841,199.99999999999997
2190.0657677407726,190.32258064516128
2191.0657977717046,193.54838709677418
2192.0658278026367,209.6774193548387
2193.0658578335683,225.8064516129032
2194.0658878645004,229.0322580645161
2195.065917895432,229.0322580645161
2196.065947926364,232.25806451612905
2197.0659779572957,229.0322580645161
2198.0660079882277,222.5806451612903
2199.0660380191594,203.2258064516129
2200.0660680500914,180.64516129032256
2201.066098081023,164.51612903225805
2202.066128111955,167.74193548387098
2203.066158142887,177.41935483870967
2204.066188173819,187.09677419354836
2205.066218204751,187.09677419354836
2206.0662482356825,177.41935483870967
2207.0662782666145,167.74193548387098
2208.066308297546,161.29032258064515
2209.066338328478,154.83870967741933
2210.06636835941,148.38709677419354
2211.066398390342,132.258064516129
2212.0664284212735,119.35483870967742
2213.0664584522056,119.35483870967742
2214.0664884831376,109.6774193548387
2215.0665185140692,112.9032258064516
2216.0665485450013,103.2258064516129
2217.066578575933,93.54838709677418
2218.066608606865,80.64516129032258
2219.0666386377966,67.74193548387096
2220.0666686687287,61.29032258064516
2221.0666986996603,54.83870967741935
2222.0667287305923,45.16129032258064
2223.066758761524,41.935483870967744
2224.066788792456,29.03225806451613
2225.066818823388,22.58064516129032
2226.0668488543197,12.903225806451612
2227.0668788852518,0.0
2228.0669089161834,-19.354838709677416
2229.0669389471154,-35.483870967741936
2230.066968978047,-35.483870967741936
2231.066999008979,-41.935483870967744
2232.0670290399107,-45.16129032258064
2233.067059070843,-25.806451612903224
2234.0670891017744,-12.903225806451612
2235.0671191327065,-12.903225806451612
2236.0671491636385,-29.03225806451613
2237.06717919457,-35.483870967741936
2238.067209225502,-48.387096774193544
2239.067239256434,-67.74193548387096
2240.067269287366,-80.64516129032258
2241.0672993182975,-90.32258064516128
2242.0673293492296,-93.54838709677418
2243.067359380161,-103.2258064516129
2244.0673894110932,-99.99999999999999
2245.067419442025,-87.09677419354838
2246.067449472957,-83.87096774193549
2247.067479503889,-83.87096774193549
2248.0675095348206,-87.09677419354838
2249.0675395657527,-96.77419354838709
2250.0675695966843,-109.6774193548387
2251.0675996276163,-112.9032258064516
2252.067629658548,-116.12903225806453
2253.06765968948,-122.58064516129032
2254.0676897204116,-125.80645161290322
2255.0677197513437,-132.258064516129
2256.0677497822753,-148.38709677419354
2257.0677798132074,-151.61290322580646
2258.0678098441394,-141.93548387096774
2259.067839875071,-135.48387096774192
2260.067869906003,-125.80645161290322
2261.0678999369347,-119.35483870967742
2262.067929967867,-125.80645161290322
2263.0679599987984,-129.03225806451613
2264.0679900297305,-129.03225806451613
2265.068020060662,-132.258064516129
2266.068050091594,-129.03225806451613
2267.0680801225258,-135.48387096774192
2268.068110153458,-138.70967741935482
2269.06814018439,-141.93548387096774
2270.0681702153215,-132.258064516129
2271.0682002462536,-116.12903225806453
2272.068230277185,-99.99999999999999
2273.0682603081173,-83.87096774193549
2274.068290339049,-90.32258064516128
2275.068320369981,-99.99999999999999
2276.0683504009125,-112.9032258064516
2277.0683804318446,-119.35483870967742
2278.0684104627762,-129.03225806451613
2279.0684404937083,-135.48387096774192
2280.0684705246404,-129.03225806451613
2281.068500555572,-125.80645161290322
2282.068530586504,-119.35483870967742
2283.0685606174357,-122.58064516129032
2284.0685906483677,-125.80645161290322
2285.0686206792993,-112.9032258064516
2286.0686507102314,-99.99999999999999
2287.068680741163,-99.99999999999999
2288.068710772095,-106.4516129032258
2289.0687408030267,-99.99999999999999
2290.0687708339588,-93.54838709677418
2291.068800864891,-96.77419354838709
2292.0688308958224,-99.99999999999999
2293.0688609267545,-99.99999999999999
2294.068890957686,-112.9032258064516
2295.068920988618,-116.12903225806453
2296.06895101955,-122.58064516129032
2297.068981050482,-129.03225806451613
2298.0690110814135,-132.258064516129
2299.0690411123455,-135.48387096774192
2300.069071143277,-135.48387096774192
2301.069101174209,-135.48387096774192
2302.0691312051413,-135.48387096774192
2303.069161236073,-129.03225806451613
2304.069191267005,-129.03225806451613
2305.0692212979366,-129.03225806451613
2306.0692513288686,-132.258064516129
2307.0692813598002,-132.258064516129
2308.0693113907323,-132.258064516129
2309.069341421664,-129.03225806451613
2310.069371452596,-122.58064516129032
2311.0694014835276,-122.58064516129032
2312.0694315144597,-122.58064516129032
2313.0694615453917,-125.80645161290322
2314.0694915763233,-129.03225806451613
2315.0695216072554,-129.03225806451613
2316.069551638187,-129.03225806451613
2317.069581669119,-129.03225806451613
2318.0696117000507,-132.258064516129
2319.0696417309828,-138.70967741935482
2320.0696717619144,-145.16129032258067
2321.0697017928464,-119.35483870967742
2322.069731823778,-109.6774193548387
2323.06976185471,-109.6774193548387
2324.069791885642,-112.9032258064516
2325.069821916574,-109.6774193548387
2326.069851947506,-106.4516129032258
2327.0698819784375,-103.2258064516129
2328.0699120093695,-99.99999999999999
2329.069942040301,-93.54838709677418
2330.069972071233,-87.09677419354838
2331.070002102165,-80.64516129032258
2332.070032133097,-80.64516129032258
2333.0700621640285,-74.19354838709677
2334.0700921949606,-74.19354838709677
2335.0701222258926,-77.41935483870967
2336.0701522568243,-87.09677419354838
2337.0701822877563,-99.99999999999999
2338.070212318688,-103.2258064516129
2339.07024234962,-99.99999999999999
2340.0702723805516,-87.09677419354838
2341.0703024114837,-87.09677419354838
2342.0703324424153,-83.87096774193549
2343.0703624733474,-70.96774193548387
2344.070392504279,-67.74193548387096
2345.070422535211,-70.96774193548387
2346.070452566143,-61.29032258064516
2347.0704825970747,-54.83870967741935
2348.070512628007,-48.387096774193544
2349.0705426589384,-51.61290322580645
2350.0705726898705,-58.06451612903226
2351.070602720802,-74.19354838709677
2352.070632751734,-83.87096774193549
2353.0706627826657,-74.19354838709677
2354.070692813598,-61.29032258064516
2355.0707228445294,-48.387096774193544
2356.0707528754615,-58.06451612903226
2357.0707829063936,-54.83870967741935
2358.070812937325,-35.483870967741936
2359.0708429682572,-38.70967741935483
2360.070872999189,-54.83870967741935
2361.070903030121,-61.29032258064516
2362.0709330610525,-54.83870967741935
2363.0709630919846,-51.61290322580645
2364.070993122916,-45.16129032258064
2365.0710231538483,-48.387096774193544
2366.07105318478,-48.387096774193544
2367.071083215712,-61.29032258064516
2368.071113246644,-61.29032258064516
2369.0711432775756,-48.387096774193544
2370.0711733085077,-48.387096774193544
2371.0712033394393,-51.61290322580645
2372.0712333703714,-45.16129032258064
2373.071263401303,-48.387096774193544
2374.071293432235,-51.61290322580645
2375.0713234631667,-45.16129032258064
2376.0713534940987,-41.935483870967744
2377.0713835250303,-41.935483870967744
2378.0714135559624,-41.935483870967744
2379.0714435868945,-38.70967741935483
2380.071473617826,-32.25806451612903
2381.071503648758,-25.806451612903224
2382.0715336796898,-19.354838709677416
2383.071563710622,-19.354838709677416
2384.0715937415534,-25.806451612903224
2385.0716237724855,-32.25806451612903
2386.071653803417,-41.935483870967744
2387.071683834349,-54.83870967741935
2388.071713865281,-51.61290322580645
2389.071743896213,-48.387096774193544
2390.071773927145,-35.483870967741936
2391.0718039580765,-16.129032258064516
2392.0718339890086,-16.129032258064516
2393.07186401994,-16.129032258064516
2394.0718940508723,-16.129032258064516
2395.071924081804,-9.677419354838708
2396.071954112736,-19.354838709677416
2397.0719841436676,-29.03225806451613
2398.0720141745996,-35.483870967741936
2399.0720442055313,-38.70967741935483
2400.0720742364633,-38.70967741935483
2401.0721042673954,-45.16129032258064
2402.072134298327,-51.61290322580645
2403.072164329259,-58.06451612903226
2404.0721943601907,-58.06451612903226
2405.0722243911227,-58.06451612903226
2406.0722544220544,-54.83870967741935
2407.0722844529864,-58.06451612903226
2408.072314483918,-58.06451612903226
2409.07234451485,-61.29032258064516
2410.0723745457817,-64.51612903225806
2411.072404576714,-67.74193548387096
2412.072434607646,-64.51612903225806
2413.0724646385775,-54.83870967741935
2414.0724946695095,-51.61290322580645
2415.072524700441,-41.935483870967744
2416.072554731373,-41.935483870967744
2417.072584762305,-51.61290322580645
2418.072614793237,-41.935483870967744
2419.0726448241685,-25.806451612903224
2420.0726748551006,-25.806451612903224
2421.072704886032,-25.806451612903224
2422.0727349169642,-25.806451612903224
2423.0727649478963,-19.354838709677416
2424.072794978828,-25.806451612903224
2425.07282500976,-29.03225806451613
2426.0728550406916,-32.25806451612903
2427.0728850716237,-38.70967741935483
2428.0729151025553,-38.70967741935483
2429.0729451334873,-32.25806451612903
2430.072975164419,-32.25806451612903
2431.073005195351,-32.25806451612903
2432.0730352262826,-35.483870967741936
2433.0730652572147,-32.25806451612903
2434.0730952881468,-32.25806451612903
2435.0731253190784,-38.70967741935483
2436.0731553500104,-45.16129032258064
2437.073185380942,-45.16129032258064
2438.073215411874,-45.16129032258064
2439.0732454428057,-38.70967741935483
2440.073275473738,-41.935483870967744
2441.0733055046694,-35.483870967741936
2442.0733355356015,-38.70967741935483
2443.073365566533,-41.935483870967744
2444.073395597465,-45.16129032258064
2445.073425628397,-41.935483870967744
2446.073455659329,-48.387096774193544
2447.073485690261,-45.16129032258064
2448.0735157211925,-32.25806451612903
2449.0735457521246,-25.806451612903224
2450.073575783056,-32.25806451612903
2451.0736058139883,-41.935483870967744
2452.07363584492,-51.61290322580645
2453.073665875852,-54.83870967741935
2454.0736959067835,-58.06451612903226
2455.0737259377156,-58.06451612903226
2456.0737559686477,-64.51612903225806
2457.0737859995793,-64.51612903225806
2458.0738160305114,-61.29032258064516
2459.073846061443,-48.387096774193544
2460.073876092375,-45.16129032258064
2461.0739061233066,-41.935483870967744
2462.0739361542387,-38.70967741935483
2463.0739661851703,-38.70967741935483
2464.0739962161024,-32.25806451612903
2465.074026247034,-25.806451612903224
2466.074056277966,-32.25806451612903
2467.074086308898,-38.70967741935483
2468.0741163398297,-48.387096774193544
2469.074146370762,-58.06451612903226
2470.0741764016934,-35.483870967741936
2471.0742064326255,-22.58064516129032
2472.074236463557,-16.129032258064516
2473.074266494489,-16.129032258064516
2474.074296525421,-3.225806451612903
2475.074326556353,3.225806451612903
2476.0743565872845,3.225806451612903
2477.0743866182165,-6.451612903225806
2478.0744166491486,-25.806451612903224
2479.07444668008,-25.806451612903224
2480.0744767110123,-16.129032258064516
2481.074506741944,-19.354838709677416
2482.074536772876,-22.58064516129032
2483.0745668038076,-32.25806451612903
2484.0745968347396,-41.935483870967744
2485.0746268656712,-58.06451612903226
2486.0746568966033,-67.74193548387096
2487.074686927535,-64.51612903225806
2488.074716958467,-51.61290322580645
2489.074746989399,-32.25806451612903
2490.0747770203307,-12.903225806451612
2491.0748070512627,-3.225806451612903
2492.0748370821943,-3.225806451612903
2493.0748671131264,-6.451612903225806
2494.074897144058,-16.129032258064516
2495.07492717499,-22.58064516129032
2496.0749572059217,-32.25806451612903
2497.0749872368538,-35.483870967741936
2498.0750172677854,-38.70967741935483
2499.0750472987174,-38.70967741935483
2500.0750773296495,-38.70967741935483
2501.075107360581,-38.70967741935483
2502.075137391513,-41.935483870967744
2503.075167422445,-45.16129032258064
2504.075197453377,-48.387096774193544
2505.0752274843085,-54.83870967741935
2506.0752575152405,-64.51612903225806
2507.075287546172,-83.87096774193549
2508.075317577104,-48.387096774193544
2509.075347608036,-16.129032258064516
2510.075377638968,-6.451612903225806
2511.0754076699,-6.451612903225806
2512.0754377008316,-6.451612903225806
2513.0754677317636,-6.451612903225806
2514.0754977626952,0.0
2515.0755277936273,9.677419354838708
2516.075557824559,12.903225806451612
2517.075587855491,12.903225806451612
2518.0756178864226,3.225806451612903
2519.0756479173547,-6.451612903225806
2520.0756779482863,-16.129032258064516
2521.0757079792184,-16.129032258064516
2522.0757380101504,-22.58064516129032
2523.075768041082,-22.58064516129032
2524.075798072014,-25.806451612903224
2525.0758281029457,-29.03225806451613
2526.075858133878,-29.03225806451613
2527.0758881648094,-25.806451612903224
2528.0759181957415,-22.58064516129032
2529.075948226673,-25.806451612903224
2530.075978257605,-22.58064516129032
2531.0760082885367,-22.58064516129032
2532.076038319469,-16.129032258064516
2533.076068350401,-22.58064516129032
2534.0760983813325,-25.806451612903224
2535.0761284122646,-29.03225806451613
2536.076158443196,-35.483870967741936
2537.0761884741282,-38.70967741935483
2538.07621850506,-41.935483870967744
2539.076248535992,-35.483870967741936
2540.0762785669235,-25.806451612903224
2541.0763085978556,-25.806451612903224
2542.076338628787,-22.58064516129032
2543.0763686597193,-16.129032258064516
2544.0763986906513,-12.903225806451612
2545.076428721583,-6.451612903225806
2546.076458752515,3.225806451612903
2547.0764887834466,6.451612903225806
2548.0765188143787,9.677419354838708
2549.0765488453103,6.451612903225806
2550.0765788762424,9.677419354838708
2551.076608907174,6.451612903225806
2552.076638938106,0.0
2553.0766689690377,-12.903225806451612
2554.0766989999697,-12.903225806451612
2555.076729030902,-6.451612903225806
2556.0767590618334,-9.677419354838708
2557.0767890927655,-6.451612903225806
2558.076819123697,-6.451612903225806
2559.076849154629,-9.677419354838708
2560.0768791855608,-6.451612903225806
2561.076909216493,-6.451612903225806
2562.0769392474244,-9.677419354838708
2563.0769692783565,-6.451612903225806
2564.076999309288,0.0
2565.07702934022,12.903225806451612
2566.0770593711522,19.354838709677416
2567.077089402084,19.354838709677416
2568.077119433016,12.903225806451612
2569.0771494639475,-3.225806451612903
2570.0771794948796,-6.451612903225806
2571.077209525811,3.225806451612903
2572.0772395567433,19.354838709677416
2573.077269587675,25.806451612903224
2574.077299618607,29.03225806451613
2575.0773296495386,25.806451612903224
2576.0773596804706,3.225806451612903
2577.0773897114027,-6.451612903225806
2578.0774197423343,-9.677419354838708
2579.0774497732664,-12.903225806451612
2580.077479804198,6.451612903225806
2581.07750983513,19.354838709677416
2582.0775398660617,54.83870967741935
2583.0775698969937,67.74193548387096
2584.0775999279253,51.61290322580645
2585.0776299588574,32.25806451612903
2586.077659989789,6.451612903225806
2587.077690020721,-12.903225806451612
2588.077720051653,-22.58064516129032
2589.0777500825848,-25.806451612903224
2590.077780113517,-22.58064516129032
2591.0778101444484,-32.25806451612903
2592.0778401753805,-35.483870967741936
2593.077870206312,-45.16129032258064
2594.077900237244,-64.51612903225806
2595.077930268176,-77.41935483870967
2596.077960299108,-77.41935483870967
2597.0779903300395,-70.96774193548387
2598.0780203609715,-74.19354838709677
2599.0780503919036,-77.41935483870967
2600.0780804228352,-64.51612903225806
2601.0781104537673,-51.61290322580645
2602.078140484699,-51.61290322580645
2603.078170515631,-51.61290322580645
2604.0782005465626,-61.29032258064516
2605.0782305774947,-51.61290322580645
2606.0782606084263,-48.387096774193544
2607.0782906393583,-51.61290322580645
2608.07832067029,-48.387096774193544
2609.078350701222,-32.25806451612903
2610.078380732154,-19.354838709677416
2611.0784107630857,-19.354838709677416
2612.0784407940178,-29.03225806451613
2613.0784708249494,-45.16129032258064
2614.0785008558814,-64.51612903225806
2615.078530886813,-67.74193548387096
2616.078560917745,-83.87096774193549
2617.0785909486767,-80.64516129032258
2618.078620979609,-58.06451612903226
2619.0786510105404,-48.387096774193544
2620.0786810414725,-45.16129032258064
2621.0787110724045,-45.16129032258064
2622.078741103336,-45.16129032258064
2623.078771134268,-41.935483870967744
2624.0788011652,-41.935483870967744
2625.078831196132,-45.16129032258064
2626.0788612270635,-48.387096774193544
2627.0788912579956,-45.16129032258064
2628.078921288927,-41.935483870967744
2629.0789513198592,-45.16129032258064
2630.078981350791,-38.70967741935483
2631.079011381723,-35.483870967741936
2632.079041412655,-25.806451612903224
2633.0790714435866,-22.58064516129032
2634.0791014745187,-16.129032258064516
2635.0791315054503,-12.903225806451612
2636.0791615363823,-9.677419354838708
2637.079191567314,0.0
2638.079221598246,12.903225806451612
2639.0792516291776,16.129032258064516
2640.0792816601097,19.354838709677416
2641.0793116910413,32.25806451612903
2642.0793417219734,51.61290322580645
2643.0793717529054,64.51612903225806
2644.079401783837,90.32258064516128
2645.079431814769,112.9032258064516
2646.0794618457007,135.48387096774192
2647.079491876633,161.29032258064515
2648.0795219075644,190.32258064516128
2649.0795519384965,216.12903225806448
2650.079581969428,245.16129032258064
2651.07961200036,264.516129032258
2652.0796420312918,274.19354838709677
2653.079672062224,296.7741935483871
2654.079702093156,329.0322580645161
2655.0797321240875,345.1612903225806
2656.0797621550196,354.83870967741933
2657.079792185951,367.741935483871
2658.0798222168833,377.41935483870964
2659.079852247815,377.41935483870964
2660.079882278747,364.51612903225805
2661.0799123096785,332.25806451612897
2662.0799423406106,296.7741935483871
2663.079972371542,274.19354838709677
2664.0800024024743,251.61290322580643
2665.0800324334064,212.9032258064516
2666.080062464338,138.70967741935482
2667.08009249527,90.32258064516128
2668.0801225262016,51.61290322580645
2669.0801525571337,-16.129032258064516
2670.0801825880653,-99.99999999999999
2671.0802126189974,-170.96774193548387
2672.080242649929,-222.5806451612903
2673.080272680861,-283.8709677419355
2674.0803027117927,-354.83870967741933
2675.0803327427247,-422.5806451612903
2676.080362773657,-496.7741935483871
2677.0803928045884,-558.0645161290322
2678.0804228355205,-612.9032258064516
2679.080452866452,-661.2903225806451
2680.080482897384,-693.5483870967741
2681.080512928316,-709.6774193548387
2682.080542959248,-725.8064516129032
2683.0805729901795,-732.2580645161289
2684.0806030211115,-732.2580645161289
2685.080633052043,-725.8064516129032
2686.080663082975,-706.4516129032257
2687.0806931139073,-677.4193548387096
2688.080723144839,-638.7096774193548
2689.080753175771,-603.2258064516128
2690.0807832067026,-570.9677419354838
2691.0808132376346,-538.7096774193549
2692.0808432685662,-503.22580645161287
2693.0808732994983,-470.9677419354839
2694.08090333043,-438.7096774193548
2695.080933361362,-409.6774193548387
2696.0809633922936,-387.09677419354836
2697.0809934232257,-361.2903225806451
2698.0810234541577,-335.48387096774195
2699.0810534850893,-312.9032258064516
2700.0810835160214,-283.8709677419355
2701.081113546953,-241.93548387096774
2702.081143577885,-206.4516129032258
2703.0811736088167,-183.8709677419355
2704.0812036397488,-164.51612903225805
2705.0812336706804,-129.03225806451613
2706.0812637016124,-87.09677419354838
2707.081293732544,-54.83870967741935
2708.081323763476,-35.483870967741936
2709.081353794408,-22.58064516129032
2710.08138382534,-9.677419354838708
2711.081413856272,6.451612903225806
2712.0814438872035,16.129032258064516
2713.0814739181355,32.25806451612903
2714.081503949067,41.935483870967744
2715.081533979999,58.06451612903226
2716.081564010931,67.74193548387096
2717.081594041863,80.64516129032258
2718.0816240727945,90.32258064516128
2719.0816541037266,90.32258064516128
2720.0816841346586,90.32258064516128
2721.0817141655903,93.54838709677418
2722.0817441965223,96.77419354838709
2723.081774227454,93.54838709677418
2724.081804258386,87.09677419354838
2725.0818342893176,112.9032258064516
2726.0818643202497,141.93548387096774
2727.0818943511813,138.70967741935482
2728.0819243821134,138.70967741935482
2729.081954413045,129.03225806451613
2730.081984443977,122.58064516129032
2731.082014474909,119.35483870967742
2732.0820445058407,122.58064516129032
2733.082074536773,125.80645161290322
2734.0821045677044,129.03225806451613
2735.0821345986365,129.03225806451613
2736.082164629568,119.35483870967742
2737.0821946605,106.4516129032258
2738.0822246914317,90.32258064516128
2739.082254722364,77.41935483870967
2740.0822847532954,80.64516129032258
2741.0823147842275,99.99999999999999
2742.0823448151596,119.35483870967742
2743.082374846091,129.03225806451613
2744.0824048770232,132.258064516129
2745.082434907955,132.258064516129
2746.082464938887,129.03225806451613
2747.0824949698185,119.35483870967742
2748.0825250007506,125.80645161290322
2749.082555031682,141.93548387096774
2750.0825850626143,141.93548387096774
2751.082615093546,129.03225806451613
2752.082645124478,116.12903225806453
2753.08267515541,112.9032258064516
2754.0827051863416,106.4516129032258
2755.0827352172737,116.12903225806453
2756.0827652482053,119.35483870967742
2757.0827952791374,122.58064516129032
2758.082825310069,119.35483870967742
2759.082855341001,106.4516129032258
2760.0828853719327,122.58064516129032
2761.0829154028647,145.16129032258067
2762.0829454337963,148.38709677419354
2763.0829754647284,145.16129032258067
2764.0830054956605,141.93548387096774
2765.083035526592,151.61290322580646
2766.083065557524,158.06451612903226
2767.0830955884558,148.38709677419354
2768.083125619388,141.93548387096774
2769.0831556503194,138.70967741935482
2770.0831856812515,129.03225806451613
2771.083215712183,122.58064516129032
2772.083245743115,122.58064516129032
2773.083275774047,129.03225806451613
2774.083305804979,125.80645161290322
2775.083335835911,122.58064516129032
2776.0833658668425,122.58064516129032
2777.0833958977746,122.58064516129032
2778.083425928706,135.48387096774192
2779.0834559596383,141.93548387096774
2780.08348599057,141.93548387096774
2781.083516021502,141.93548387096774
2782.0835460524336,135.48387096774192
2783.0835760833656,132.258064516129
2784.0836061142973,129.03225806451613
2785.0836361452293,129.03225806451613
2786.0836661761614,129.03225806451613
2787.083696207093,122.58064516129032
2788.083726238025,119.35483870967742
2789.0837562689567,119.35483870967742
2790.0837862998887,122.58064516129032
2791.0838163308204,129.03225806451613
2792.0838463617524,129.03225806451613
2793.083876392684,122.58064516129032
2794.083906423616,119.35483870967742
2795.0839364545477,116.12903225806453
2796.08396648548,129.03225806451613
2797.083996516412,141.93548387096774
2798.0840265473435,145.16129032258067
2799.0840565782755,145.16129032258067
2800.084086609207,148.38709677419354
2801.084116640139,148.38709677419354
2802.084146671071,154.83870967741933
2803.084176702003,158.06451612903226
2804.0842067329345,161.29032258064515
2805.0842367638666,161.29032258064515
2806.084266794798,158.06451612903226
2807.0842968257302,158.06451612903226
2808.0843268566623,158.06451612903226
2809.084356887594,158.06451612903226
2810.084386918526,161.29032258064515
2811.0844169494576,154.83870967741933
2812.0844469803897,145.16129032258067
2813.0844770113213,145.16129032258067
2814.0845070422533,154.83870967741933
2815.084537073185,167.74193548387098
2816.084567104117,170.96774193548387
2817.0845971350486,174.19354838709677
2818.0846271659807,174.19354838709677
2819.0846571969128,170.96774193548387
2820.0846872278444,161.29032258064515
2821.0847172587764,161.29032258064515
2822.084747289708,164.51612903225805
2823.08477732064,164.51612903225805
2824.0848073515717,170.96774193548387
2825.084837382504,183.8709677419355
2826.0848674134354,196.7741935483871
2827.0848974443675,193.54838709677418
2828.084927475299,174.19354838709677
2829.084957506231,187.09677419354836
2830.084987537163,212.9032258064516
2831.085017568095,229.0322580645161
2832.085047599027,225.8064516129032
2833.0850776299585,222.5806451612903
2834.0851076608906,229.0322580645161
2835.085137691822,245.16129032258064
2836.0851677227542,245.16129032258064
2837.085197753686,232.25806451612905
2838.085227784618,225.8064516129032
2839.0852578155495,222.5806451612903
2840.0852878464816,222.5806451612903
2841.0853178774137,222.5806451612903
2842.0853479083453,232.25806451612905
2843.0853779392774,245.16129032258064
2844.085407970209,245.16129032258064
2845.085438001141,241.93548387096774
2846.0854680320726,232.25806451612905
2847.0854980630047,229.0322580645161
2848.0855280939363,238.70967741935485
2849.0855581248684,235.48387096774195
2850.0855881558,232.25806451612905
2851.085618186732,219.3548387096774
2852.085648217664,206.4516129032258
2853.0856782485957,203.2258064516129
2854.085708279528,196.7741935483871
2855.0857383104594,196.7741935483871
2856.0857683413915,193.54838709677418
2857.085798372323,183.8709677419355
2858.085828403255,170.96774193548387
2859.085858434187,154.83870967741933
2860.085888465119,151.61290322580646
2861.0859184960505,154.83870967741933
2862.0859485269825,164.51612903225805
2863.0859785579146,170.96774193548387
2864.086008588846,161.29032258064515
2865.0860386197783,145.16129032258067
2866.08606865071,132.258064516129
2867.086098681642,119.35483870967742
2868.0861287125736,112.9032258064516
2869.0861587435056,116.12903225806453
2870.0861887744372,132.258064516129
2871.0862188053693,141.93548387096774
2872.086248836301,141.93548387096774
2873.086278867233,135.48387096774192
2874.086308898165,129.03225806451613
2875.0863389290967,112.9032258064516
2876.0863689600287,96.77419354838709
2877.0863989909603,93.54838709677418
2878.0864290218924,90.32258064516128
2879.086459052824,83.87096774193549
2880.086489083756,80.64516129032258
2881.0865191146877,74.19354838709677
2882.0865491456198,64.51612903225806
2883.0865791765514,48.387096774193544
2884.0866092074834,32.25806451612903
2885.0866392384155,19.354838709677416
2886.086669269347,16.129032258064516
2887.086699300279,12.903225806451612
2888.086729331211,6.451612903225806
2889.086759362143,-6.451612903225806
2890.0867893930745,-9.677419354838708
2891.0868194240065,-22.58064516129032
2892.086849454938,-29.03225806451613
2893.08687948587,-35.483870967741936
2894.086909516802,-48.387096774193544
2895.086939547734,-61.29032258064516
2896.086969578666,-77.41935483870967
2897.0869996095976,-74.19354838709677
2898.0870296405296,-70.96774193548387
2899.0870596714612,-74.19354838709677
2900.0870897023933,-80.64516129032258
2901.087119733325,-90.32258064516128
2902.087149764257,-96.77419354838709
2903.0871797951886,-103.2258064516129
2904.0872098261207,-103.2258064516129
2905.0872398570523,-109.6774193548387
2906.0872698879843,-112.9032258064516
2907.0872999189164,-112.9032258064516
2908.087329949848,-122.58064516129032
2909.08735998078,-135.48387096774192
2910.0873900117117,-129.03225806451613
2911.0874200426438,-129.03225806451613
2912.0874500735754,-125.80645161290322
2913.0874801045074,-125.80645161290322
2914.087510135439,-119.35483870967742
2915.087540166371,-109.6774193548387
2916.0875701973027,-112.9032258064516
2917.087600228235,-116.12903225806453
2918.087630259167,-125.80645161290322
2919.0876602900985,-135.48387096774192
2920.0876903210305,-151.61290322580646
2921.087720351962,-154.83870967741933
2922.0877503828942,-158.06451612903226
2923.087780413826,-158.06451612903226
2924.087810444758,-151.61290322580646
2925.0878404756895,-145.16129032258067
2926.0878705066216,-141.93548387096774
2927.087900537553,-145.16129032258067
2928.0879305684853,-154.83870967741933
2929.0879605994173,-158.06451612903226
2930.087990630349,-148.38709677419354
2931.088020661281,-161.29032258064515
2932.0880506922126,-167.74193548387098
2933.0880807231447,-170.96774193548387
2934.0881107540763,-167.74193548387098
2935.0881407850084,-167.74193548387098
2936.08817081594,-158.06451612903226
2937.088200846872,-141.93548387096774
2938.0882308778037,-125.80645161290322
2939.0882609087357,-109.6774193548387
2940.088290939668,-90.32258064516128
2941.0883209705994,-90.32258064516128
2942.0883510015315,-90.32258064516128
2943.088381032463,-90.32258064516128
2944.088411063395,-99.99999999999999
2945.0884410943268,-109.6774193548387
2946.088471125259,-116.12903225806453
2947.0885011561904,-125.80645161290322
2948.0885311871225,-125.80645161290322
2949.088561218054,-129.03225806451613
2950.088591248986,-116.12903225806453
2951.0886212799182,-112.9032258064516
2952.08865131085,-106.4516129032258
2953.088681341782,-99.99999999999999
2954.0887113727135,-93.54838709677418
2955.0887414036456,-87.09677419354838
2956.088771434577,-77.41935483870967
2957.0888014655093,-77.41935483870967
2958.088831496441,-80.64516129032258
2959.088861527373,-87.09677419354838
2960.0888915583046,-90.32258064516128
2961.0889215892366,-99.99999999999999
2962.0889516201687,-109.6774193548387
2963.0889816511003,-112.9032258064516
2964.0890116820324,-119.35483870967742
2965.089041712964,-129.03225806451613
2966.089071743896,-132.258064516129
2967.0891017748277,-132.258064516129
2968.0891318057597,-125.80645161290322
2969.0891618366913,-119.35483870967742
2970.0891918676234,-116.12903225806453
2971.089221898555,-119.35483870967742
2972.089251929487,-125.80645161290322
2973.089281960419,-132.258064516129
2974.0893119913508,-135.48387096774192
2975.089342022283,-122.58064516129032
2976.0893720532144,-112.9032258064516
2977.0894020841465,-99.99999999999999
2978.089432115078,-99.99999999999999
2979.08946214601,-99.99999999999999
2980.089492176942,-96.77419354838709
2981.089522207874,-90.32258064516128
2982.0895522388055,-80.64516129032258
2983.0895822697375,-77.41935483870967
2984.0896123006696,-83.87096774193549
2985.089642331601,-87.09677419354838
2986.0896723625333,-90.32258064516128
2987.089702393465,-93.54838709677418
2988.089732424397,-99.99999999999999
2989.0897624553286,-109.6774193548387
2990.0897924862606,-112.9032258064516
2991.0898225171923,-112.9032258064516
2992.0898525481243,-99.99999999999999
2993.089882579056,-77.41935483870967
2994.089912609988,-74.19354838709677
2995.08994264092,-67.74193548387096
2996.0899726718517,-74.19354838709677
2997.0900027027837,-80.64516129032258
2998.0900327337154,-90.32258064516128
2999.0900627646474,-99.99999999999999
3000.090092795579,-93.54838709677418
3001.090122826511,-80.64516129032258
3002.0901528574427,-70.96774193548387
3003.090182888375,-58.06451612903226
3004.0902129193064,-41.935483870967744
3005.0902429502385,-35.483870967741936
3006.0902729811705,-38.70967741935483
3007.090303012102,-45.16129032258064
3008.090333043034,-45.16129032258064
3009.090363073966,-45.16129032258064
3010.090393104898,-45.16129032258064
3011.0904231358295,-25.806451612903224
3012.0904531667616,-19.354838709677416
3013.090483197693,-22.58064516129032
3014.0905132286252,-32.25806451612903
3015.090543259557,-38.70967741935483
3016.090573290489,-45.16129032258064
3017.090603321421,-45.16129032258064
3018.0906333523526,-48.387096774193544
3019.0906633832847,-58.06451612903226
3020.0906934142163,-58.06451612903226
3021.0907234451483,-58.06451612903226
3022.09075347608,-58.06451612903226
3023.090783507012,-61.29032258064516
3024.0908135379436,-64.51612903225806
3025.0908435688757,-58.06451612903226
3026.0908735998073,-54.83870967741935
3027.0909036307394,-48.387096774193544
3028.0909336616714,-32.25806451612903
3029.090963692603,-25.806451612903224
3030.090993723535,-25.806451612903224
3031.0910237544667,-35.483870967741936
3032.091053785399,-48.387096774193544
3033.0910838163304,-51.61290322580645
3034.0911138472625,-51.61290322580645
3035.091143878194,-35.483870967741936
3036.091173909126,-25.806451612903224
3037.0912039400578,-25.806451612903224
3038.09123397099,-29.03225806451613
3039.091264001922,-25.806451612903224
3040.0912940328535,-9.677419354838708
3041.0913240637856,0.0
3042.091354094717,16.129032258064516
3043.0913841256493,29.03225806451613
3044.091414156581,16.129032258064516
3045.091444187513,3.225806451612903
3046.0914742184445,0.0
3047.0915042493766,-3.225806451612903
3048.091534280308,-6.451612903225806
3049.0915643112403,-9.677419354838708
3050.0915943421724,-12.903225806451612
3051.091624373104,-19.354838709677416
3052.091654404036,-29.03225806451613
3053.0916844349676,-38.70967741935483
3054.0917144658997,-45.16129032258064
3055.0917444968313,-48.387096774193544
3056.0917745277634,-41.935483870967744
3057.091804558695,-35.483870967741936
3058.091834589627,-32.25806451612903
3059.0918646205587,-32.25806451612903
3060.0918946514907,-29.03225806451613
3061.091924682423,-25.806451612903224
3062.0919547133544,-19.354838709677416
3063.0919847442865,-16.129032258064516
3064.092014775218,-19.354838709677416
3065.09204480615,-25.806451612903224
3066.092074837082,-45.16129032258064
3067.092104868014,-29.03225806451613
3068.0921348989455,-6.451612903225806
3069.0921649298775,-6.451612903225806
3070.092194960809,-16.129032258064516
3071.092224991741,-12.903225806451612
3072.0922550226733,-16.129032258064516
3073.092285053605,-22.58064516129032
3074.092315084537,-12.903225806451612
3075.0923451154686,6.451612903225806
3076.0923751464006,12.903225806451612
3077.0924051773322,16.129032258064516
3078.0924352082643,16.129032258064516
3079.092465239196,3.225806451612903
3080.092495270128,-6.451612903225806
3081.0925253010596,-12.903225806451612
3082.0925553319917,-16.129032258064516
3083.0925853629233,-12.903225806451612
3084.0926153938553,-3.225806451612903
3085.0926454247874,16.129032258064516
3086.092675455719,16.129032258064516
3087.092705486651,6.451612903225806
3088.0927355175827,-6.451612903225806
3089.0927655485148,-12.903225806451612
3090.0927955794464,-12.903225806451612
3091.0928256103784,-9.677419354838708
3092.09285564131,-9.677419354838708
3093.092885672242,-9.677419354838708
3094.0929157031737,-12.903225806451612
3095.092945734106,-12.903225806451612
3096.092975765038,-12.903225806451612
3097.0930057959695,-9.677419354838708
3098.0930358269015,-3.225806451612903
3099.093065857833,-3.225806451612903
3100.093095888765,-6.451612903225806
3101.093125919697,-9.677419354838708
3102.093155950629,-16.129032258064516
3103.0931859815605,-22.58064516129032
3104.0932160124926,-29.03225806451613
3105.093246043424,-25.806451612903224
3106.0932760743563,-16.129032258064516
3107.0933061052883,-6.451612903225806
3108.09333613622,-3.225806451612903
3109.093366167152,-6.451612903225806
3110.0933961980836,-12.903225806451612
3111.0934262290157,-12.903225806451612
3112.0934562599473,-12.903225806451612
3113.0934862908794,-6.451612903225806
3114.093516321811,0.0
3115.093546352743,0.0
3116.0935763836746,-6.451612903225806
3117.0936064146067,-12.903225806451612
3118.093636445539,0.0
3119.0936664764704,-9.677419354838708
3120.0936965074025,-12.903225806451612
3121.093726538334,-9.677419354838708
3122.093756569266,-6.451612903225806
3123.0937866001977,-6.451612903225806
3124.09381663113,0.0
3125.0938466620614,9.677419354838708
3126.0938766929935,6.451612903225806
3127.093906723925,-6.451612903225806
3128.093936754857,-3.225806451612903
3129.0939667857892,-6.451612903225806
3130.093996816721,3.225806451612903
3131.094026847653,6.451612903225806
3132.0940568785845,12.903225806451612
3133.0940869095166,25.806451612903224
3134.094116940448,35.483870967741936
3135.0941469713803,41.935483870967744
3136.094177002312,38.70967741935483
3137.094207033244,35.483870967741936
3138.0942370641756,35.483870967741936
3139.0942670951076,38.70967741935483
3140.0942971260397,51.61290322580645
3141.0943271569713,51.61290322580645
3142.0943571879034,45.16129032258064
3143.094387218835,38.70967741935483
3144.094417249767,29.03225806451613
3145.0944472806987,25.806451612903224
3146.0944773116307,12.903225806451612
3147.0945073425623,9.677419354838708
3148.0945373734944,-3.225806451612903
3149.094567404426,-6.451612903225806
3150.094597435358,0.0
3151.09462746629,0.0
3152.0946574972218,-6.451612903225806
3153.094687528154,-9.677419354838708
3154.0947175590854,-19.354838709677416
3155.0947475900175,-22.58064516129032
3156.094777620949,-22.58064516129032
3157.094807651881,-25.806451612903224
3158.094837682813,-25.806451612903224
3159.094867713745,-22.58064516129032
3160.0948977446765,-12.903225806451612
3161.0949277756085,-12.903225806451612
3162.0949578065406,-12.903225806451612
3163.094987837472,-12.903225806451612
3164.0950178684043,-9.677419354838708
3165.095047899336,-9.677419354838708
3166.095077930268,-9.677419354838708
3167.0951079611996,-9.677419354838708
3168.0951379921316,-9.677419354838708
3169.0951680230633,0.0
3170.0951980539953,16.129032258064516
3171.095228084927,22.58064516129032
3172.095258115859,25.806451612903224
3173.095288146791,16.129032258064516
3174.0953181777227,3.225806451612903
3175.0953482086547,-6.451612903225806
3176.0953782395864,3.225806451612903
3177.0954082705184,3.225806451612903
3178.09543830145,-3.225806451612903
3179.095468332382,-6.451612903225806
3180.0954983633137,-3.225806451612903
3181.095528394246,0.0
3182.0955584251774,-6.451612903225806
3183.0955884561095,-6.451612903225806
3184.0956184870415,-6.451612903225806
3185.095648517973,-3.225806451612903
3186.095678548905,-12.903225806451612
3187.095708579837,-22.58064516129032
3188.095738610769,-25.806451612903224
3189.0957686417005,-35.483870967741936
3190.0957986726326,-35.483870967741936
3191.095828703564,-25.806451612903224
3192.0958587344962,-9.677419354838708
3193.095888765428,0.0
3194.09591879636,-3.225806451612903
3195.095948827292,-9.677419354838708
3196.0959788582236,-12.903225806451612
3197.0960088891557,-9.677419354838708
3198.0960389200873,-6.451612903225806
3199.0960689510193,-12.903225806451612
3200.096098981951,-19.354838709677416
3201.096129012883,-22.58064516129032
3202.0961590438146,-3.225806451612903
3203.0961890747467,0.0
3204.0962191056783,-9.677419354838708
3205.0962491366104,-12.903225806451612
3206.0962791675424,-9.677419354838708
3207.096309198474,-3.225806451612903
3208.096339229406,-6.451612903225806
3209.0963692603377,-3.225806451612903
3210.09639929127,-3.225806451612903
3211.0964293222014,-9.677419354838708
3212.0964593531335,-6.451612903225806
3213.096489384065,-6.451612903225806
3214.096519414997,-9.677419354838708
3215.0965494459288,-3.225806451612903
3216.096579476861,-3.225806451612903
3217.096609507793,3.225806451612903
3218.0966395387245,9.677419354838708
3219.0966695696566,9.677419354838708
3220.096699600588,3.225806451612903
