timestamp,valores
0.0,-12.903225806451612
1.0000203877754898,-12.903225806451612
2.0000407755509797,-9.677419354838708
3.0000611633264693,0.0
4.000081551101959,0.0
5.0001019388774495,0.0
6.000122326652939,-9.677419354838708
7.000142714428429,-9.677419354838708
8.000163102203919,-12.903225806451612
9.000183489979408,-9.677419354838708
10.000203877754899,-12.903225806451612
11.000224265530388,-9.677419354838708
12.000244653305877,0.0
13.000265041081368,-3.225806451612903
14.000285428856857,-9.677419354838708
15.000305816632348,-19.354838709677416
16.000326204407838,-16.129032258064516
17.000346592183327,-6.451612903225806
18.000366979958816,-3.225806451612903
19.00038736773431,0.0
20.000407755509798,-6.451612903225806
21.000428143285287,0.0
22.000448531060776,3.225806451612903
23.000468918836265,6.451612903225806
24.000489306611755,12.903225806451612
25.000509694387247,6.451612903225806
26.000530082162737,3.225806451612903
27.000550469938226,3.225806451612903
28.000570857713715,6.451612903225806
29.000591245489204,3.225806451612903
30.000611633264697,3.225806451612903
31.000632021040186,9.677419354838708
32.000652408815675,12.903225806451612
33.00067279659117,6.451612903225806
34.000693184366654,3.225806451612903
35.000713572142146,3.225806451612903
36.00073395991763,-3.225806451612903
37.000754347693125,-9.677419354838708
38.00077473546862,-16.129032258064516
39.0007951232441,-16.129032258064516
40.000815511019596,-9.677419354838708
41.00083589879508,-9.677419354838708
42.000856286570574,3.225806451612903
43.00087667434607,16.129032258064516
44.00089706212155,19.354838709677416
45.000917449897045,16.129032258064516
46.00093783767253,16.129032258064516
47.000958225448024,16.129032258064516
48.00097861322351,9.677419354838708
49.000999000999,9.677419354838708
50.001019388774495,9.677419354838708
51.00103977654998,3.225806451612903
52.00106016432547,-12.903225806451612
53.00108055210096,-16.129032258064516
54.00110093987645,-12.903225806451612
55.001121327651944,-9.677419354838708
56.00114171542743,-6.451612903225806
57.00116210320292,-9.677419354838708
58.00118249097841,-12.903225806451612
59.0012028787539,-16.129032258064516
60.001223266529394,-16.129032258064516
61.00124365430488,-16.129032258064516
62.00126404208037,-9.677419354838708
63.00128442985586,-6.451612903225806
64.00130481763135,-3.225806451612903
65.00132520540684,-6.451612903225806
66.00134559318234,-6.451612903225806
67.00136598095781,0.0
68.00138636873331,9.677419354838708
69.0014067565088,12.903225806451612
70.00142714428429,12.903225806451612
71.00144753205979,9.677419354838708
72.00146791983526,9.677419354838708
73.00148830761076,9.677419354838708
74.00150869538625,9.677419354838708
75.00152908316174,6.451612903225806
76.00154947093723,6.451612903225806
77.00156985871271,9.677419354838708
78.0015902464882,9.677419354838708
79.0016106342637,6.451612903225806
80.00163102203919,0.0
81.00165140981468,-6.451612903225806
82.00167179759016,-12.903225806451612
83.00169218536566,-19.354838709677416
84.00171257314115,-19.354838709677416
85.00173296091664,-12.903225806451612
86.00175334869213,-9.677419354838708
87.00177373646761,-3.225806451612903
88.0017941242431,3.225806451612903
89.0018145120186,3.225806451612903
90.00183489979409,6.451612903225806
91.00185528756958,6.451612903225806
92.00187567534506,6.451612903225806
93.00189606312055,6.451612903225806
94.00191645089605,0.0
95.00193683867154,0.0
96.00195722644702,3.225806451612903
97.00197761422251,6.451612903225806
98.001998001998,3.225806451612903
99.0020183897735,-3.225806451612903
100.00203877754899,3.225806451612903
101.00205916532447,9.677419354838708
102.00207955309996,9.677419354838708
103.00209994087545,6.451612903225806
104.00212032865095,9.677419354838708
105.00214071642644,12.903225806451612
106.00216110420192,9.677419354838708
107.00218149197741,3.225806451612903
108.0022018797529,6.451612903225806
109.0022222675284,6.451612903225806
110.00224265530389,3.225806451612903
111.00226304307937,0.0
112.00228343085486,0.0
113.00230381863035,3.225806451612903
114.00232420640585,3.225806451612903
115.00234459418134,0.0
116.00236498195682,-9.677419354838708
117.00238536973231,-16.129032258064516
118.0024057575078,-25.806451612903224
119.0024261452833,-25.806451612903224
120.00244653305879,-12.903225806451612
121.00246692083427,0.0
122.00248730860976,-3.225806451612903
123.00250769638525,-6.451612903225806
124.00252808416074,-6.451612903225806
125.00254847193624,0.0
126.00256885971172,3.225806451612903
127.00258924748721,3.225806451612903
128.0026096352627,6.451612903225806
129.0026300230382,6.451612903225806
130.0026504108137,6.451612903225806
131.00267079858918,6.451612903225806
132.00269118636467,3.225806451612903
133.00271157414014,0.0
134.00273196191563,0.0
135.00275234969112,0.0
136.00277273746661,0.0
137.0027931252421,0.0
138.0028135130176,-3.225806451612903
139.0028339007931,0.0
140.00285428856859,0.0
141.00287467634408,-6.451612903225806
142.00289506411957,-6.451612903225806
143.00291545189503,0.0
144.00293583967053,3.225806451612903
145.00295622744602,3.225806451612903
146.0029766152215,3.225806451612903
147.002997002997,3.225806451612903
148.0030173907725,6.451612903225806
149.003037778548,9.677419354838708
150.00305816632348,12.903225806451612
151.00307855409898,12.903225806451612
152.00309894187447,6.451612903225806
153.00311932964993,-6.451612903225806
154.00313971742543,-6.451612903225806
155.00316010520092,-9.677419354838708
156.0031804929764,-12.903225806451612
157.0032008807519,-6.451612903225806
158.0032212685274,3.225806451612903
159.0032416563029,6.451612903225806
160.00326204407838,6.451612903225806
161.00328243185388,12.903225806451612
162.00330281962937,25.806451612903224
163.00332320740483,29.03225806451613
164.00334359518033,25.806451612903224
165.00336398295582,19.354838709677416
166.0033843707313,12.903225806451612
167.0034047585068,6.451612903225806
168.0034251462823,3.225806451612903
169.0034455340578,3.225806451612903
170.00346592183328,3.225806451612903
171.00348630960877,3.225806451612903
172.00350669738427,3.225806451612903
173.00352708515973,6.451612903225806
174.00354747293522,9.677419354838708
175.00356786071072,16.129032258064516
176.0035882484862,22.58064516129032
177.0036086362617,32.25806451612903
178.0036290240372,32.25806451612903
179.0036494118127,22.58064516129032
180.00366979958818,16.129032258064516
181.00369018736367,0.0
182.00371057513917,-9.677419354838708
183.00373096291463,-16.129032258064516
184.00375135069012,-32.25806451612903
185.00377173846562,-38.70967741935483
186.0037921262411,-32.25806451612903
187.0038125140166,-25.806451612903224
188.0038329017921,-22.58064516129032
189.0038532895676,-16.129032258064516
190.00387367734308,-16.129032258064516
191.00389406511857,-22.58064516129032
192.00391445289404,-19.354838709677416
193.00393484066953,-9.677419354838708
194.00395522844502,-6.451612903225806
195.00397561622052,0.0
196.003996003996,3.225806451612903
197.0040163917715,3.225806451612903
198.004036779547,6.451612903225806
199.0040571673225,9.677419354838708
200.00407755509798,6.451612903225806
201.00409794287347,3.225806451612903
202.00411833064894,0.0
203.00413871842443,-3.225806451612903
204.00415910619992,-3.225806451612903
205.0041794939754,3.225806451612903
206.0041998817509,9.677419354838708
207.0042202695264,16.129032258064516
208.0042406573019,19.354838709677416
209.00426104507739,16.129032258064516
210.00428143285288,16.129032258064516
211.00430182062837,12.903225806451612
212.00432220840383,12.903225806451612
213.00434259617933,12.903225806451612
214.00436298395482,16.129032258064516
215.0043833717303,19.354838709677416
216.0044037595058,22.58064516129032
217.0044241472813,35.483870967741936
218.0044445350568,51.61290322580645
219.00446492283228,54.83870967741935
220.00448531060778,48.387096774193544
221.00450569838327,35.483870967741936
222.00452608615873,19.354838709677416
223.00454647393423,19.354838709677416
224.00456686170972,19.354838709677416
225.0045872494852,9.677419354838708
226.0046076372607,0.0
227.0046280250362,3.225806451612903
228.0046484128117,6.451612903225806
229.00466880058718,9.677419354838708
230.00468918836268,3.225806451612903
231.00470957613817,0.0
232.00472996391363,0.0
233.00475035168913,3.225806451612903
234.00477073946462,3.225806451612903
235.0047911272401,3.225806451612903
236.0048115150156,3.225806451612903
237.0048319027911,0.0
238.0048522905666,-6.451612903225806
239.00487267834208,-9.677419354838708
240.00489306611757,-16.129032258064516
241.00491345389307,-19.354838709677416
242.00493384166853,-12.903225806451612
243.00495422944402,-9.677419354838708
244.00497461721952,-9.677419354838708
245.004995004995,-6.451612903225806
246.0050153927705,0.0
247.005035780546,0.0
248.0050561683215,3.225806451612903
249.00507655609698,3.225806451612903
250.00509694387247,6.451612903225806
251.00511733164797,3.225806451612903
252.00513771942343,3.225806451612903
253.00515810719892,6.451612903225806
254.00517849497442,19.354838709677416
255.0051988827499,29.03225806451613
256.0052192705254,25.806451612903224
257.00523965830087,29.03225806451613
258.0052600460764,29.03225806451613
259.00528043385185,25.806451612903224
260.0053008216274,22.58064516129032
261.00532120940284,19.354838709677416
262.00534159717836,19.354838709677416
263.0053619849538,19.354838709677416
264.00538237272934,19.354838709677416
265.0054027605048,19.354838709677416
266.0054231482803,16.129032258064516
267.0054435360558,12.903225806451612
268.00546392383126,6.451612903225806
269.0054843116068,0.0
270.00550469938224,0.0
271.00552508715776,3.225806451612903
272.00554547493323,9.677419354838708
273.00556586270875,16.129032258064516
274.0055862504842,16.129032258064516
275.00560663825974,16.129032258064516
276.0056270260352,16.129032258064516
277.00564741381066,12.903225806451612
278.0056678015862,12.903225806451612
279.00568818936165,6.451612903225806
280.00570857713717,9.677419354838708
281.00572896491263,9.677419354838708
282.00574935268816,12.903225806451612
283.0057697404636,16.129032258064516
284.00579012823914,16.129032258064516
285.0058105160146,12.903225806451612
286.00583090379007,6.451612903225806
287.0058512915656,3.225806451612903
288.00587167934106,3.225806451612903
289.0058920671166,9.677419354838708
290.00591245489204,12.903225806451612
291.00593284266756,16.129032258064516
292.005953230443,19.354838709677416
293.00597361821855,25.806451612903224
294.005994005994,25.806451612903224
295.00601439376953,29.03225806451613
296.006034781545,32.25806451612903
297.00605516932046,38.70967741935483
298.006075557096,38.70967741935483
299.00609594487145,41.935483870967744
300.00611633264697,41.935483870967744
301.00613672042243,51.61290322580645
302.00615710819795,58.06451612903226
303.0061774959734,51.61290322580645
304.00619788374894,45.16129032258064
305.0062182715244,45.16129032258064
306.00623865929987,41.935483870967744
307.0062590470754,41.935483870967744
308.00627943485085,38.70967741935483
309.0062998226264,38.70967741935483
310.00632021040184,38.70967741935483
311.00634059817736,48.387096774193544
312.0063609859528,51.61290322580645
313.00638137372835,54.83870967741935
314.0064017615038,58.06451612903226
315.00642214927933,61.29032258064516
316.0064425370548,54.83870967741935
317.00646292483026,54.83870967741935
318.0064833126058,51.61290322580645
319.00650370038124,54.83870967741935
320.00652408815677,48.387096774193544
321.00654447593223,45.16129032258064
322.00656486370775,51.61290322580645
323.0065852514832,54.83870967741935
324.00660563925874,54.83870967741935
325.0066260270342,54.83870967741935
326.00664641480967,41.935483870967744
327.0066668025852,25.806451612903224
328.00668719036065,16.129032258064516
329.0067075781362,9.677419354838708
330.00672796591164,3.225806451612903
331.00674835368716,-6.451612903225806
332.0067687414626,-9.677419354838708
333.00678912923814,-12.903225806451612
334.0068095170136,-9.677419354838708
335.0068299047891,-9.677419354838708
336.0068502925646,-16.129032258064516
337.00687068034006,-16.129032258064516
338.0068910681156,-25.806451612903224
339.00691145589104,-35.483870967741936
340.00693184366656,-29.03225806451613
341.006952231442,-25.806451612903224
342.00697261921755,-25.806451612903224
343.006993006993,-25.806451612903224
344.00701339476853,-25.806451612903224
345.007033782544,-29.03225806451613
346.00705417031946,-29.03225806451613
347.007074558095,-25.806451612903224
348.00709494587045,-29.03225806451613
349.00711533364597,-32.25806451612903
350.00713572142143,-25.806451612903224
351.00715610919696,-22.58064516129032
352.0071764969724,-16.129032258064516
353.00719688474794,-16.129032258064516
354.0072172725234,-16.129032258064516
355.00723766029887,-9.677419354838708
356.0072580480744,-9.677419354838708
357.00727843584986,-16.129032258064516
358.0072988236254,-29.03225806451613
359.00731921140084,-35.483870967741936
360.00733959917636,-25.806451612903224
361.0073599869518,-16.129032258064516
362.00738037472735,-16.129032258064516
363.0074007625028,-16.129032258064516
364.00742115027833,-9.677419354838708
365.0074415380538,-9.677419354838708
366.00746192582926,-16.129032258064516
367.0074823136048,-25.806451612903224
368.00750270138025,-35.483870967741936
369.00752308915577,-41.935483870967744
370.00754347693123,-38.70967741935483
371.00756386470675,-29.03225806451613
372.0075842524822,-19.354838709677416
373.00760464025774,-19.354838709677416
374.0076250280332,-12.903225806451612
375.00764541580867,-9.677419354838708
376.0076658035842,-9.677419354838708
377.00768619135965,-9.677419354838708
378.0077065791352,-16.129032258064516
379.00772696691064,-16.129032258064516
380.00774735468616,-19.354838709677416
381.0077677424616,-16.129032258064516
382.00778813023715,-12.903225806451612
383.0078085180126,-12.903225806451612
384.0078289057881,-9.677419354838708
385.0078492935636,-6.451612903225806
386.00786968133906,-6.451612903225806
387.0078900691146,-3.225806451612903
388.00791045689004,0.0
389.00793084466557,0.0
390.00795123244103,3.225806451612903
391.00797162021655,6.451612903225806
392.007992007992,16.129032258064516
393.00801239576754,29.03225806451613
394.008032783543,38.70967741935483
395.00805317131847,45.16129032258064
396.008073559094,45.16129032258064
397.00809394686945,48.387096774193544
398.008114334645,58.06451612903226
399.00813472242044,70.96774193548387
400.00815511019596,90.32258064516128
401.0081754979714,112.9032258064516
402.00819588574694,135.48387096774192
403.0082162735224,164.51612903225805
404.0082366612979,199.99999999999997
405.0082570490734,238.70967741935485
406.00827743684886,270.96774193548384
407.0082978246244,300.0
408.00831821239984,322.5806451612903
409.00833860017536,348.38709677419354
410.0083589879508,380.64516129032256
411.00837937572635,412.9032258064516
412.0083997635018,432.25806451612897
413.00842015127733,448.3870967741935
414.0084405390528,458.0645161290322
415.00846092682826,474.19354838709677
416.0084813146038,483.8709677419355
417.00850170237925,496.7741935483871
418.00852209015477,500.0
419.00854247793023,490.3225806451613
420.00856286570576,474.19354838709677
421.0085832534812,445.1612903225806
422.00860364125674,406.4516129032258
423.0086240290322,364.51612903225805
424.00864441680767,312.9032258064516
425.0086648045832,251.61290322580643
426.00868519235866,177.41935483870967
427.0087055801342,93.54838709677418
428.00872596790964,-3.225806451612903
429.00874635568516,-109.6774193548387
430.0087667434606,-219.3548387096774
431.00878713123615,-322.5806451612903
432.0088075190116,-416.12903225806446
433.00882790678713,-506.45161290322585
434.0088482945626,-593.5483870967741
435.00886868233806,-667.7419354838709
436.0088890701136,-729.0322580645161
437.00890945788905,-770.9677419354838
438.00892984566457,-799.9999999999999
439.00895023344003,-819.3548387096774
440.00897062121555,-822.5806451612902
441.008991008991,-816.1290322580644
442.00901139676654,-809.6774193548388
443.009031784542,-796.7741935483871
444.00905217231747,-780.6451612903226
445.009072560093,-758.0645161290321
446.00909294786845,-722.5806451612902
447.009113335644,-680.6451612903226
448.00913372341944,-635.4838709677418
449.00915411119496,-596.7741935483871
450.0091744989704,-554.8387096774193
451.00919488674595,-519.3548387096773
452.0092152745214,-480.64516129032256
453.0092356622969,-445.1612903225806
454.0092560500724,-406.4516129032258
455.00927643784786,-367.741935483871
456.0092968256234,-329.0322580645161
457.00931721339884,-293.54838709677415
458.00933760117437,-264.516129032258
459.00935798894983,-229.0322580645161
460.00937837672535,-199.99999999999997
461.0093987645008,-167.74193548387098
462.00941915227634,-138.70967741935482
463.0094395400518,-106.4516129032258
464.00945992782727,-77.41935483870967
465.0094803156028,-51.61290322580645
466.00950070337825,-35.483870967741936
467.0095210911538,-19.354838709677416
468.00954147892924,0.0
469.00956186670476,19.354838709677416
470.0095822544802,35.483870967741936
471.00960264225574,51.61290322580645
472.0096230300312,61.29032258064516
473.00964341780667,70.96774193548387
474.0096638055822,83.87096774193549
475.00968419335766,90.32258064516128
476.0097045811332,96.77419354838709
477.00972496890864,106.4516129032258
478.00974535668416,106.4516129032258
479.0097657444596,106.4516129032258
480.00978613223515,106.4516129032258
481.0098065200106,99.99999999999999
482.00982690778613,103.2258064516129
483.0098472955616,106.4516129032258
484.00986768333706,106.4516129032258
485.0098880711126,112.9032258064516
486.00990845888805,119.35483870967742
487.00992884666357,129.03225806451613
488.00994923443903,135.48387096774192
489.00996962221456,138.70967741935482
490.00999000999,141.93548387096774
491.01001039776554,141.93548387096774
492.010030785541,141.93548387096774
493.01005117331647,138.70967741935482
494.010071561092,129.03225806451613
495.01009194886745,122.58064516129032
496.010112336643,122.58064516129032
497.01013272441844,119.35483870967742
498.01015311219396,122.58064516129032
499.0101734999694,132.258064516129
500.01019388774495,141.93548387096774
501.0102142755204,145.16129032258067
502.01023466329593,148.38709677419354
503.0102550510714,151.61290322580646
504.01027543884686,151.61290322580646
505.0102958266224,154.83870967741933
506.01031621439785,158.06451612903226
507.01033660217337,158.06451612903226
508.01035698994883,158.06451612903226
509.01037737772435,158.06451612903226
510.0103977654998,158.06451612903226
511.01041815327534,158.06451612903226
512.0104385410508,154.83870967741933
513.0104589288263,151.61290322580646
514.0104793166017,148.38709677419354
515.0104997043773,145.16129032258067
516.0105200921528,145.16129032258067
517.0105404799283,148.38709677419354
518.0105608677037,145.16129032258067
519.0105812554792,145.16129032258067
520.0106016432547,145.16129032258067
521.0106220310303,141.93548387096774
522.0106424188057,141.93548387096774
523.0106628065812,145.16129032258067
524.0106831943567,141.93548387096774
525.0107035821321,138.70967741935482
526.0107239699076,129.03225806451613
527.0107443576832,125.80645161290322
528.0107647454587,119.35483870967742
529.0107851332341,112.9032258064516
530.0108055210096,116.12903225806453
531.0108259087851,119.35483870967742
532.0108462965605,125.80645161290322
533.0108666843361,129.03225806451613
534.0108870721116,125.80645161290322
535.0109074598871,125.80645161290322
536.0109278476625,125.80645161290322
537.010948235438,125.80645161290322
538.0109686232136,122.58064516129032
539.0109890109891,122.58064516129032
540.0110093987645,129.03225806451613
541.01102978654,125.80645161290322
542.0110501743155,129.03225806451613
543.0110705620909,129.03225806451613
544.0110909498665,119.35483870967742
545.011111337642,112.9032258064516
546.0111317254175,106.4516129032258
547.0111521131929,116.12903225806453
548.0111725009684,129.03225806451613
549.011192888744,129.03225806451613
550.0112132765195,129.03225806451613
551.0112336642949,129.03225806451613
552.0112540520704,132.258064516129
553.0112744398459,135.48387096774192
554.0112948276213,135.48387096774192
555.0113152153968,138.70967741935482
556.0113356031724,141.93548387096774
557.0113559909479,141.93548387096774
558.0113763787233,132.258064516129
559.0113967664988,122.58064516129032
560.0114171542743,122.58064516129032
561.0114375420499,125.80645161290322
562.0114579298253,129.03225806451613
563.0114783176008,129.03225806451613
564.0114987053763,125.80645161290322
565.0115190931517,129.03225806451613
566.0115394809272,122.58064516129032
567.0115598687028,116.12903225806453
568.0115802564783,109.6774193548387
569.0116006442537,103.2258064516129
570.0116210320292,99.99999999999999
571.0116414198047,99.99999999999999
572.0116618075801,103.2258064516129
573.0116821953557,99.99999999999999
574.0117025831312,103.2258064516129
575.0117229709067,106.4516129032258
576.0117433586821,112.9032258064516
577.0117637464576,116.12903225806453
578.0117841342332,112.9032258064516
579.0118045220087,112.9032258064516
580.0118249097841,116.12903225806453
581.0118452975596,119.35483870967742
582.0118656853351,125.80645161290322
583.0118860731105,129.03225806451613
584.011906460886,132.258064516129
585.0119268486616,135.48387096774192
586.0119472364371,135.48387096774192
587.0119676242125,141.93548387096774
588.011988011988,138.70967741935482
589.0120083997635,132.258064516129
590.0120287875391,135.48387096774192
591.0120491753145,138.70967741935482
592.01206956309,135.48387096774192
593.0120899508655,138.70967741935482
594.0121103386409,138.70967741935482
595.0121307264164,138.70967741935482
596.012151114192,141.93548387096774
597.0121715019675,148.38709677419354
598.0121918897429,148.38709677419354
599.0122122775184,148.38709677419354
600.0122326652939,148.38709677419354
601.0122530530693,145.16129032258067
602.0122734408449,148.38709677419354
603.0122938286204,148.38709677419354
604.0123142163959,145.16129032258067
605.0123346041713,145.16129032258067
606.0123549919468,158.06451612903226
607.0123753797224,174.19354838709677
608.0123957674979,187.09677419354836
609.0124161552733,187.09677419354836
610.0124365430488,183.8709677419355
611.0124569308243,180.64516129032256
612.0124773185997,174.19354838709677
613.0124977063753,177.41935483870967
614.0125180941508,180.64516129032256
615.0125384819263,183.8709677419355
616.0125588697017,183.8709677419355
617.0125792574772,187.09677419354836
618.0125996452527,183.8709677419355
619.0126200330283,174.19354838709677
620.0126404208037,170.96774193548387
621.0126608085792,170.96774193548387
622.0126811963547,170.96774193548387
623.0127015841301,164.51612903225805
624.0127219719056,161.29032258064515
625.0127423596812,161.29032258064515
626.0127627474567,161.29032258064515
627.0127831352321,161.29032258064515
628.0128035230076,158.06451612903226
629.0128239107831,158.06451612903226
630.0128442985587,164.51612903225805
631.0128646863341,174.19354838709677
632.0128850741096,174.19354838709677
633.0129054618851,164.51612903225805
634.0129258496605,161.29032258064515
635.012946237436,158.06451612903226
636.0129666252116,151.61290322580646
637.0129870129871,148.38709677419354
638.0130074007625,148.38709677419354
639.013027788538,148.38709677419354
640.0130481763135,148.38709677419354
641.0130685640889,141.93548387096774
642.0130889518645,141.93548387096774
643.01310933964,138.70967741935482
644.0131297274155,138.70967741935482
645.0131501151909,135.48387096774192
646.0131705029664,132.258064516129
647.013190890742,129.03225806451613
648.0132112785175,119.35483870967742
649.0132316662929,119.35483870967742
650.0132520540684,122.58064516129032
651.0132724418439,116.12903225806453
652.0132928296193,116.12903225806453
653.0133132173949,106.4516129032258
654.0133336051704,99.99999999999999
655.0133539929459,93.54838709677418
656.0133743807213,93.54838709677418
657.0133947684968,87.09677419354838
658.0134151562723,67.74193548387096
659.0134355440479,58.06451612903226
660.0134559318233,54.83870967741935
661.0134763195988,54.83870967741935
662.0134967073743,54.83870967741935
663.0135170951497,58.06451612903226
664.0135374829252,58.06451612903226
665.0135578707008,48.387096774193544
666.0135782584763,32.25806451612903
667.0135986462517,32.25806451612903
668.0136190340272,38.70967741935483
669.0136394218027,29.03225806451613
670.0136598095781,3.225806451612903
671.0136801973537,-12.903225806451612
672.0137005851292,-16.129032258064516
673.0137209729047,-22.58064516129032
674.0137413606801,-25.806451612903224
675.0137617484556,-32.25806451612903
676.0137821362312,-45.16129032258064
677.0138025240067,-61.29032258064516
678.0138229117821,-70.96774193548387
679.0138432995576,-74.19354838709677
680.0138636873331,-70.96774193548387
681.0138840751085,-77.41935483870967
682.013904462884,-83.87096774193549
683.0139248506596,-90.32258064516128
684.0139452384351,-87.09677419354838
685.0139656262105,-77.41935483870967
686.013986013986,-103.2258064516129
687.0140064017615,-129.03225806451613
688.0140267895371,-138.70967741935482
689.0140471773125,-135.48387096774192
690.014067565088,-138.70967741935482
691.0140879528635,-151.61290322580646
692.0141083406389,-164.51612903225805
693.0141287284144,-180.64516129032256
694.01414911619,-183.8709677419355
695.0141695039655,-187.09677419354836
696.0141898917409,-183.8709677419355
697.0142102795164,-177.41935483870967
698.0142306672919,-177.41935483870967
699.0142510550675,-167.74193548387098
700.0142714428429,-170.96774193548387
701.0142918306184,-180.64516129032256
702.0143122183939,-180.64516129032256
703.0143326061693,-180.64516129032256
704.0143529939448,-177.41935483870967
705.0143733817204,-177.41935483870967
706.0143937694959,-180.64516129032256
707.0144141572713,-187.09677419354836
708.0144345450468,-193.54838709677418
709.0144549328223,-190.32258064516128
710.0144753205977,-190.32258064516128
711.0144957083733,-187.09677419354836
712.0145160961488,-183.8709677419355
713.0145364839243,-180.64516129032256
714.0145568716997,-183.8709677419355
715.0145772594752,-177.41935483870967
716.0145976472508,-177.41935483870967
717.0146180350263,-177.41935483870967
718.0146384228017,-180.64516129032256
719.0146588105772,-187.09677419354836
720.0146791983527,-190.32258064516128
721.0146995861281,-196.7741935483871
722.0147199739037,-196.7741935483871
723.0147403616792,-199.99999999999997
724.0147607494547,-196.7741935483871
725.0147811372301,-199.99999999999997
726.0148015250056,-203.2258064516129
727.0148219127811,-199.99999999999997
728.0148423005567,-190.32258064516128
729.0148626883321,-183.8709677419355
730.0148830761076,-183.8709677419355
731.0149034638831,-180.64516129032256
732.0149238516585,-177.41935483870967
733.014944239434,-174.19354838709677
734.0149646272096,-170.96774193548387
735.0149850149851,-170.96774193548387
736.0150054027605,-170.96774193548387
737.015025790536,-167.74193548387098
738.0150461783115,-167.74193548387098
739.015066566087,-167.74193548387098
740.0150869538625,-167.74193548387098
741.015107341638,-161.29032258064515
742.0151277294135,-148.38709677419354
743.0151481171889,-148.38709677419354
744.0151685049644,-164.51612903225805
745.01518889274,-170.96774193548387
746.0152092805155,-180.64516129032256
747.0152296682909,-180.64516129032256
748.0152500560664,-174.19354838709677
749.0152704438419,-170.96774193548387
750.0152908316173,-170.96774193548387
751.0153112193929,-170.96774193548387
752.0153316071684,-167.74193548387098
753.0153519949439,-167.74193548387098
754.0153723827193,-164.51612903225805
755.0153927704948,-164.51612903225805
756.0154131582703,-164.51612903225805
757.0154335460459,-158.06451612903226
758.0154539338213,-151.61290322580646
759.0154743215968,-145.16129032258067
760.0154947093723,-141.93548387096774
761.0155150971477,-145.16129032258067
762.0155354849232,-135.48387096774192
763.0155558726988,-122.58064516129032
764.0155762604743,-119.35483870967742
765.0155966482497,-125.80645161290322
766.0156170360252,-129.03225806451613
767.0156374238007,-129.03225806451613
768.0156578115761,-129.03225806451613
769.0156781993517,-125.80645161290322
770.0156985871272,-119.35483870967742
771.0157189749027,-112.9032258064516
772.0157393626781,-99.99999999999999
773.0157597504536,-109.6774193548387
774.0157801382292,-112.9032258064516
775.0158005260047,-116.12903225806453
776.0158209137801,-116.12903225806453
777.0158413015556,-112.9032258064516
778.0158616893311,-112.9032258064516
779.0158820771065,-109.6774193548387
780.0159024648821,-103.2258064516129
781.0159228526576,-96.77419354838709
782.0159432404331,-87.09677419354838
783.0159636282085,-83.87096774193549
784.015984015984,-80.64516129032258
785.0160044037596,-83.87096774193549
786.0160247915351,-90.32258064516128
787.0160451793105,-90.32258064516128
788.016065567086,-90.32258064516128
789.0160859548615,-87.09677419354838
790.0161063426369,-83.87096774193549
791.0161267304125,-83.87096774193549
792.016147118188,-77.41935483870967
793.0161675059635,-77.41935483870967
794.0161878937389,-77.41935483870967
795.0162082815144,-77.41935483870967
796.01622866929,-83.87096774193549
797.0162490570655,-83.87096774193549
798.0162694448409,-80.64516129032258
799.0162898326164,-74.19354838709677
800.0163102203919,-70.96774193548387
801.0163306081673,-67.74193548387096
802.0163509959428,-64.51612903225806
803.0163713837184,-58.06451612903226
804.0163917714939,-54.83870967741935
805.0164121592693,-54.83870967741935
806.0164325470448,-54.83870967741935
807.0164529348203,-54.83870967741935
808.0164733225957,-58.06451612903226
809.0164937103713,-48.387096774193544
810.0165140981468,-45.16129032258064
811.0165344859223,-48.387096774193544
812.0165548736977,-54.83870967741935
813.0165752614732,-51.61290322580645
814.0165956492488,-54.83870967741935
815.0166160370243,-51.61290322580645
816.0166364247997,-48.387096774193544
817.0166568125752,-45.16129032258064
818.0166772003507,-35.483870967741936
819.0166975881261,-29.03225806451613
820.0167179759017,-32.25806451612903
821.0167383636772,-35.483870967741936
822.0167587514527,-41.935483870967744
823.0167791392281,-45.16129032258064
824.0167995270036,-41.935483870967744
825.0168199147791,-35.483870967741936
826.0168403025547,-35.483870967741936
827.0168606903301,-32.25806451612903
828.0168810781056,-25.806451612903224
829.0169014658811,-22.58064516129032
830.0169218536565,-22.58064516129032
831.016942241432,-29.03225806451613
832.0169626292076,-35.483870967741936
833.0169830169831,-41.935483870967744
834.0170034047585,-38.70967741935483
835.017023792534,-32.25806451612903
836.0170441803095,-25.806451612903224
837.017064568085,-25.806451612903224
838.0170849558605,-29.03225806451613
839.017105343636,-25.806451612903224
840.0171257314115,-29.03225806451613
841.0171461191869,-38.70967741935483
842.0171665069624,-48.387096774193544
843.017186894738,-48.387096774193544
844.0172072825135,-41.935483870967744
845.0172276702889,-38.70967741935483
846.0172480580644,-35.483870967741936
847.0172684458399,-35.483870967741936
848.0172888336153,-32.25806451612903
849.0173092213909,-32.25806451612903
850.0173296091664,-32.25806451612903
851.0173499969419,-35.483870967741936
852.0173703847173,-41.935483870967744
853.0173907724928,-41.935483870967744
854.0174111602684,-38.70967741935483
855.0174315480439,-38.70967741935483
856.0174519358193,-32.25806451612903
857.0174723235948,-22.58064516129032
858.0174927113703,-19.354838709677416
859.0175130991457,-22.58064516129032
860.0175334869213,-25.806451612903224
861.0175538746968,-16.129032258064516
862.0175742624723,-3.225806451612903
863.0175946502477,3.225806451612903
864.0176150380232,0.0
865.0176354257987,3.225806451612903
866.0176558135743,0.0
867.0176762013497,-3.225806451612903
868.0176965891252,-9.677419354838708
869.0177169769007,-9.677419354838708
870.0177373646761,-3.225806451612903
871.0177577524516,-6.451612903225806
872.0177781402272,-9.677419354838708
873.0177985280027,-12.903225806451612
874.0178189157781,-12.903225806451612
875.0178393035536,-12.903225806451612
876.0178596913291,-12.903225806451612
877.0178800791045,-12.903225806451612
878.0179004668801,-19.354838709677416
879.0179208546556,-19.354838709677416
880.0179412424311,-9.677419354838708
881.0179616302065,-3.225806451612903
882.017982017982,0.0
883.0180024057576,0.0
884.0180227935331,0.0
885.0180431813085,-3.225806451612903
886.018063569084,-6.451612903225806
887.0180839568595,-3.225806451612903
888.0181043446349,0.0
889.0181247324105,0.0
890.018145120186,3.225806451612903
891.0181655079615,-6.451612903225806
892.0181858957369,-6.451612903225806
893.0182062835124,-12.903225806451612
894.018226671288,-16.129032258064516
895.0182470590635,-12.903225806451612
896.0182674468389,-9.677419354838708
897.0182878346144,-9.677419354838708
898.0183082223899,-12.903225806451612
899.0183286101653,-9.677419354838708
900.0183489979408,-9.677419354838708
901.0183693857164,-12.903225806451612
902.0183897734919,-12.903225806451612
903.0184101612673,-12.903225806451612
904.0184305490428,-12.903225806451612
905.0184509368183,-16.129032258064516
906.0184713245937,-19.354838709677416
907.0184917123693,-19.354838709677416
908.0185121001448,-12.903225806451612
909.0185324879203,-9.677419354838708
910.0185528756957,-9.677419354838708
911.0185732634712,-9.677419354838708
912.0185936512468,-16.129032258064516
913.0186140390223,-12.903225806451612
914.0186344267977,-3.225806451612903
915.0186548145732,-9.677419354838708
916.0186752023487,-9.677419354838708
917.0186955901241,-6.451612903225806
918.0187159778997,-9.677419354838708
919.0187363656752,-12.903225806451612
920.0187567534507,-19.354838709677416
921.0187771412261,-22.58064516129032
922.0187975290016,-25.806451612903224
923.0188179167772,-19.354838709677416
924.0188383045527,-16.129032258064516
925.0188586923281,-12.903225806451612
926.0188790801036,-9.677419354838708
927.0188994678791,-3.225806451612903
928.0189198556545,0.0
929.01894024343,0.0
930.0189606312056,-3.225806451612903
931.0189810189811,-6.451612903225806
932.0190014067565,-6.451612903225806
933.019021794532,-9.677419354838708
934.0190421823075,-9.677419354838708
935.0190625700831,-6.451612903225806
936.0190829578585,-6.451612903225806
937.019103345634,-3.225806451612903
938.0191237334095,-16.129032258064516
939.0191441211849,-19.354838709677416
940.0191645089604,-9.677419354838708
941.019184896736,0.0
942.0192052845115,3.225806451612903
943.0192256722869,3.225806451612903
944.0192460600624,0.0
945.0192664478379,-3.225806451612903
946.0192868356133,0.0
947.0193072233889,-3.225806451612903
948.0193276111644,-9.677419354838708
949.0193479989399,-12.903225806451612
950.0193683867153,-12.903225806451612
951.0193887744908,-12.903225806451612
952.0194091622664,-12.903225806451612
953.0194295500419,-12.903225806451612
954.0194499378173,-9.677419354838708
955.0194703255928,-9.677419354838708
956.0194907133683,-12.903225806451612
957.0195111011437,-12.903225806451612
958.0195314889193,-22.58064516129032
959.0195518766948,-19.354838709677416
960.0195722644703,-12.903225806451612
961.0195926522457,-9.677419354838708
962.0196130400212,-6.451612903225806
963.0196334277967,-3.225806451612903
964.0196538155723,-3.225806451612903
965.0196742033477,3.225806451612903
966.0196945911232,3.225806451612903
967.0197149788987,-6.451612903225806
968.0197353666741,-12.903225806451612
969.0197557544496,-16.129032258064516
970.0197761422252,-22.58064516129032
971.0197965300007,-19.354838709677416
972.0198169177761,-12.903225806451612
973.0198373055516,-6.451612903225806
974.0198576933271,-6.451612903225806
975.0198780811025,-6.451612903225806
976.0198984688781,-6.451612903225806
977.0199188566536,-6.451612903225806
978.0199392444291,-6.451612903225806
979.0199596322045,-3.225806451612903
980.01998001998,3.225806451612903
981.0200004077556,6.451612903225806
982.0200207955311,3.225806451612903
983.0200411833065,0.0
984.020061571082,-9.677419354838708
985.0200819588575,-16.129032258064516
986.0201023466329,-22.58064516129032
987.0201227344085,-12.903225806451612
988.020143122184,-9.677419354838708
989.0201635099595,-9.677419354838708
990.0201838977349,-9.677419354838708
991.0202042855104,-9.677419354838708
992.020224673286,-3.225806451612903
993.0202450610615,-6.451612903225806
994.0202654488369,-3.225806451612903
995.0202858366124,3.225806451612903
996.0203062243879,3.225806451612903
997.0203266121633,-3.225806451612903
998.0203469999389,-9.677419354838708
999.0203673877144,-12.903225806451612
1000.0203877754899,-9.677419354838708
1001.0204081632653,-9.677419354838708
1002.0204285510408,-9.677419354838708
1003.0204489388163,-9.677419354838708
1004.0204693265919,-9.677419354838708
1005.0204897143673,-9.677419354838708
1006.0205101021428,-9.677419354838708
1007.0205304899183,-6.451612903225806
1008.0205508776937,-3.225806451612903
1009.0205712654692,0.0
1010.0205916532448,3.225806451612903
1011.0206120410203,3.225806451612903
1012.0206324287957,3.225806451612903
1013.0206528165712,0.0
1014.0206732043467,-6.451612903225806
1015.0206935921221,-16.129032258064516
1016.0207139798977,-25.806451612903224
1017.0207343676732,-19.354838709677416
1018.0207547554487,-19.354838709677416
1019.0207751432241,-22.58064516129032
1020.0207955309996,-25.806451612903224
1021.0208159187752,-22.58064516129032
1022.0208363065507,-16.129032258064516
1023.0208566943261,-19.354838709677416
1024.0208770821016,-16.129032258064516
1025.0208974698771,-9.677419354838708
1026.0209178576526,-3.225806451612903
1027.0209382454282,6.451612903225806
1028.0209586332035,9.677419354838708
1029.020979020979,12.903225806451612
1030.0209994087545,12.903225806451612
1031.02101979653,12.903225806451612
1032.0210401843055,9.677419354838708
1033.021060572081,9.677419354838708
1034.0210809598566,9.677419354838708
1035.0211013476319,9.677419354838708
1036.0211217354074,6.451612903225806
1037.021142123183,3.225806451612903
1038.0211625109584,3.225806451612903
1039.021182898734,3.225806451612903
1040.0212032865095,6.451612903225806
1041.021223674285,3.225806451612903
1042.0212440620605,0.0
1043.0212644498358,-3.225806451612903
1044.0212848376113,0.0
1045.0213052253869,0.0
1046.0213256131624,0.0
1047.021346000938,-6.451612903225806
1048.0213663887134,-3.225806451612903
1049.021386776489,0.0
1050.0214071642642,3.225806451612903
1051.0214275520398,3.225806451612903
1052.0214479398153,6.451612903225806
1053.0214683275908,12.903225806451612
1054.0214887153663,12.903225806451612
1055.0215091031419,12.903225806451612
1056.0215294909174,12.903225806451612
1057.0215498786927,9.677419354838708
1058.0215702664682,6.451612903225806
1059.0215906542437,6.451612903225806
1060.0216110420192,9.677419354838708
1061.0216314297948,16.129032258064516
1062.0216518175703,19.354838709677416
1063.0216722053458,16.129032258064516
1064.021692593121,19.354838709677416
1065.0217129808966,25.806451612903224
1066.0217333686721,29.03225806451613
1067.0217537564477,29.03225806451613
1068.0217741442232,22.58064516129032
1069.0217945319987,19.354838709677416
1070.0218149197742,12.903225806451612
1071.0218353075497,0.0
1072.021855695325,-3.225806451612903
1073.0218760831006,0.0
1074.021896470876,3.225806451612903
1075.0219168586516,6.451612903225806
1076.0219372464271,3.225806451612903
1077.0219576342026,3.225806451612903
1078.0219780219782,3.225806451612903
1079.0219984097535,3.225806451612903
1080.022018797529,3.225806451612903
1081.0220391853045,3.225806451612903
1082.02205957308,3.225806451612903
1083.0220799608555,9.677419354838708
1084.022100348631,12.903225806451612
1085.0221207364066,12.903225806451612
1086.0221411241819,9.677419354838708
1087.0221615119574,3.225806451612903
1088.022181899733,-6.451612903225806
1089.0222022875084,-9.677419354838708
1090.022222675284,-9.677419354838708
1091.0222430630595,-6.451612903225806
1092.022263450835,-3.225806451612903
1093.0222838386103,6.451612903225806
1094.0223042263858,19.354838709677416
1095.0223246141613,19.354838709677416
1096.0223450019369,22.58064516129032
1097.0223653897124,22.58064516129032
1098.022385777488,16.129032258064516
1099.0224061652634,12.903225806451612
1100.022426553039,9.677419354838708
1101.0224469408142,6.451612903225806
1102.0224673285898,9.677419354838708
1103.0224877163653,9.677419354838708
1104.0225081041408,9.677419354838708
1105.0225284919163,9.677419354838708
1106.0225488796918,12.903225806451612
1107.0225692674674,16.129032258064516
1108.0225896552427,16.129032258064516
1109.0226100430182,19.354838709677416
1110.0226304307937,22.58064516129032
1111.0226508185692,19.354838709677416
1112.0226712063447,16.129032258064516
1113.0226915941203,16.129032258064516
1114.0227119818958,12.903225806451612
1115.022732369671,16.129032258064516
1116.0227527574466,19.354838709677416
1117.0227731452221,19.354838709677416
1118.0227935329976,16.129032258064516
1119.0228139207732,12.903225806451612
1120.0228343085487,3.225806451612903
1121.0228546963242,-9.677419354838708
1122.0228750840997,-19.354838709677416
1123.022895471875,-16.129032258064516
1124.0229158596505,-9.677419354838708
1125.022936247426,-6.451612903225806
1126.0229566352016,-3.225806451612903
1127.022977022977,3.225806451612903
1128.0229974107526,16.129032258064516
1129.0230177985281,22.58064516129032
1130.0230381863034,22.58064516129032
1131.023058574079,22.58064516129032
1132.0230789618545,25.806451612903224
1133.02309934963,25.806451612903224
1134.0231197374055,29.03225806451613
1135.023140125181,22.58064516129032
1136.0231605129566,9.677419354838708
1137.0231809007319,0.0
1138.0232012885074,-9.677419354838708
1139.023221676283,-9.677419354838708
1140.0232420640584,-6.451612903225806
1141.023262451834,-3.225806451612903
1142.0232828396095,0.0
1143.023303227385,3.225806451612903
1144.0233236151603,9.677419354838708
1145.0233440029358,6.451612903225806
1146.0233643907113,3.225806451612903
1147.0233847784868,6.451612903225806
1148.0234051662624,0.0
1149.0234255540379,-3.225806451612903
1150.0234459418134,3.225806451612903
1151.023466329589,3.225806451612903
1152.0234867173642,9.677419354838708
1153.0235071051397,16.129032258064516
1154.0235274929153,19.354838709677416
1155.0235478806908,19.354838709677416
1156.0235682684663,16.129032258064516
1157.0235886562418,19.354838709677416
1158.0236090440173,25.806451612903224
1159.0236294317926,29.03225806451613
1160.0236498195682,25.806451612903224
1161.0236702073437,22.58064516129032
1162.0236905951192,16.129032258064516
1163.0237109828947,12.903225806451612
1164.0237313706702,19.354838709677416
1165.0237517584458,25.806451612903224
1166.023772146221,25.806451612903224
1167.0237925339966,22.58064516129032
1168.023812921772,12.903225806451612
1169.0238333095476,9.677419354838708
1170.0238536973231,12.903225806451612
1171.0238740850987,16.129032258064516
1172.0238944728742,19.354838709677416
1173.0239148606495,19.354838709677416
1174.023935248425,19.354838709677416
1175.0239556362005,19.354838709677416
1176.023976023976,22.58064516129032
1177.0239964117516,22.58064516129032
1178.024016799527,22.58064516129032
1179.0240371873026,19.354838709677416
1180.0240575750781,25.806451612903224
1181.0240779628534,22.58064516129032
1182.024098350629,16.129032258064516
1183.0241187384045,12.903225806451612
1184.02413912618,16.129032258064516
1185.0241595139555,16.129032258064516
1186.024179901731,25.806451612903224
1187.0242002895066,29.03225806451613
1188.0242206772818,32.25806451612903
1189.0242410650574,35.483870967741936
1190.024261452833,35.483870967741936
1191.0242818406084,35.483870967741936
1192.024302228384,35.483870967741936
1193.0243226161595,35.483870967741936
1194.024343003935,32.25806451612903
1195.0243633917103,38.70967741935483
1196.0243837794858,35.483870967741936
1197.0244041672613,32.25806451612903
1198.0244245550368,32.25806451612903
1199.0244449428124,29.03225806451613
1200.0244653305879,35.483870967741936
1201.0244857183634,35.483870967741936
1202.0245061061387,38.70967741935483
1203.0245264939142,45.16129032258064
1204.0245468816897,45.16129032258064
1205.0245672694653,45.16129032258064
1206.0245876572408,48.387096774193544
1207.0246080450163,54.83870967741935
1208.0246284327918,61.29032258064516
1209.0246488205673,64.51612903225806
1210.0246692083426,64.51612903225806
1211.0246895961182,64.51612903225806
1212.0247099838937,64.51612903225806
1213.0247303716692,64.51612903225806
1214.0247507594447,64.51612903225806
1215.0247711472202,61.29032258064516
1216.0247915349958,54.83870967741935
1217.024811922771,54.83870967741935
1218.0248323105466,48.387096774193544
1219.024852698322,41.935483870967744
1220.0248730860976,45.16129032258064
1221.0248934738731,45.16129032258064
1222.0249138616487,41.935483870967744
1223.0249342494242,38.70967741935483
1224.0249546371995,32.25806451612903
1225.024975024975,22.58064516129032
1226.0249954127505,16.129032258064516
1227.025015800526,6.451612903225806
1228.0250361883016,0.0
1229.025056576077,-9.677419354838708
1230.0250769638526,-12.903225806451612
1231.025097351628,-22.58064516129032
1232.0251177394034,-29.03225806451613
1233.025138127179,-35.483870967741936
1234.0251585149545,-41.935483870967744
1235.02517890273,-38.70967741935483
1236.0251992905055,-38.70967741935483
1237.025219678281,-38.70967741935483
1238.0252400660565,-35.483870967741936
1239.0252604538318,-29.03225806451613
1240.0252808416074,-22.58064516129032
1241.0253012293829,-16.129032258064516
1242.0253216171584,-12.903225806451612
1243.025342004934,-12.903225806451612
1244.0253623927094,-19.354838709677416
1245.025382780485,-22.58064516129032
1246.0254031682603,-25.806451612903224
1247.0254235560358,-22.58064516129032
1248.0254439438113,-25.806451612903224
1249.0254643315868,-29.03225806451613
1250.0254847193623,-32.25806451612903
1251.0255051071379,-35.483870967741936
1252.0255254949134,-38.70967741935483
1253.0255458826887,-25.806451612903224
1254.0255662704642,-12.903225806451612
1255.0255866582397,-6.451612903225806
1256.0256070460152,-3.225806451612903
1257.0256274337908,3.225806451612903
1258.0256478215663,3.225806451612903
1259.0256682093418,0.0
1260.0256885971173,6.451612903225806
1261.0257089848926,12.903225806451612
1262.0257293726681,16.129032258064516
1263.0257497604437,12.903225806451612
1264.0257701482192,9.677419354838708
1265.0257905359947,-3.225806451612903
1266.0258109237702,-6.451612903225806
1267.0258313115457,-6.451612903225806
1268.025851699321,-9.677419354838708
1269.0258720870966,-9.677419354838708
1270.025892474872,0.0
1271.0259128626476,3.225806451612903
1272.0259332504231,3.225806451612903
1273.0259536381986,-6.451612903225806
1274.0259740259742,-16.129032258064516
1275.0259944137495,-22.58064516129032
1276.026014801525,-12.903225806451612
1277.0260351893005,-9.677419354838708
1278.026055577076,-19.354838709677416
1279.0260759648515,-25.806451612903224
1280.026096352627,-25.806451612903224
1281.0261167404026,-25.806451612903224
1282.0261371281779,-25.806451612903224
1283.0261575159534,-25.806451612903224
1284.026177903729,-22.58064516129032
1285.0261982915044,-9.677419354838708
1286.02621867928,6.451612903225806
1287.0262390670555,19.354838709677416
1288.026259454831,35.483870967741936
1289.0262798426065,48.387096774193544
1290.0263002303818,54.83870967741935
1291.0263206181573,58.06451612903226
1292.0263410059329,64.51612903225806
1293.0263613937084,70.96774193548387
1294.026381781484,90.32258064516128
1295.0264021692594,106.4516129032258
1296.026422557035,129.03225806451613
1297.0264429448102,154.83870967741933
1298.0264633325858,180.64516129032256
1299.0264837203613,209.6774193548387
1300.0265041081368,235.48387096774195
1301.0265244959123,258.06451612903226
1302.0265448836878,283.8709677419355
1303.0265652714634,309.67741935483866
1304.0265856592387,335.48387096774195
1305.0266060470142,358.06451612903226
1306.0266264347897,377.41935483870964
1307.0266468225652,399.99999999999994
1308.0266672103407,419.3548387096774
1309.0266875981163,441.9354838709677
1310.0267079858918,464.5161290322581
1311.026728373667,477.4193548387097
1312.0267487614426,477.4193548387097
1313.0267691492181,467.741935483871
1314.0267895369936,448.3870967741935
1315.0268099247692,419.3548387096774
1316.0268303125447,380.64516129032256
1317.0268507003202,345.1612903225806
1318.0268710880957,300.0
1319.026891475871,238.70967741935485
1320.0269118636465,170.96774193548387
1321.026932251422,96.77419354838709
1322.0269526391976,12.903225806451612
1323.026973026973,-87.09677419354838
1324.0269934147486,-193.54838709677418
1325.0270138025242,-296.7741935483871
1326.0270341902994,-387.09677419354836
1327.027054578075,-464.5161290322581
1328.0270749658505,-538.7096774193549
1329.027095353626,-606.4516129032259
1330.0271157414015,-667.7419354838709
1331.027136129177,-722.5806451612902
1332.0271565169526,-761.2903225806451
1333.0271769047279,-783.8709677419355
1334.0271972925034,-787.0967741935484
1335.027217680279,-783.8709677419355
1336.0272380680544,-767.741935483871
1337.02725845583,-761.2903225806451
1338.0272788436055,-748.3870967741934
1339.027299231381,-729.0322580645161
1340.0273196191563,-700.0
1341.0273400069318,-661.2903225806451
1342.0273603947073,-622.5806451612902
1343.0273807824829,-580.6451612903227
1344.0274011702584,-538.7096774193549
1345.027421558034,-487.0967741935484
1346.0274419458094,-448.3870967741935
1347.027462333585,-412.9032258064516
1348.0274827213602,-387.09677419354836
1349.0275031091358,-358.06451612903226
1350.0275234969113,-329.0322580645161
1351.0275438846868,-306.4516129032258
1352.0275642724623,-283.8709677419355
1353.0275846602378,-254.83870967741933
1354.0276050480134,-225.8064516129032
1355.0276254357887,-190.32258064516128
1356.0276458235642,-164.51612903225805
1357.0276662113397,-135.48387096774192
1358.0276865991152,-116.12903225806453
1359.0277069868907,-87.09677419354838
1360.0277273746663,-51.61290322580645
1361.0277477624418,-32.25806451612903
1362.027768150217,-16.129032258064516
1363.0277885379926,-6.451612903225806
1364.027808925768,3.225806451612903
1365.0278293135436,12.903225806451612
1366.0278497013192,25.806451612903224
1367.0278700890947,32.25806451612903
1368.0278904768702,41.935483870967744
1369.0279108646455,58.06451612903226
1370.027931252421,70.96774193548387
1371.0279516401965,83.87096774193549
1372.027972027972,99.99999999999999
1373.0279924157476,109.6774193548387
1374.028012803523,116.12903225806453
1375.0280331912986,119.35483870967742
1376.0280535790741,122.58064516129032
1377.0280739668494,129.03225806451613
1378.028094354625,129.03225806451613
1379.0281147424005,135.48387096774192
1380.028135130176,141.93548387096774
1381.0281555179515,148.38709677419354
1382.028175905727,148.38709677419354
1383.0281962935026,148.38709677419354
1384.0282166812779,148.38709677419354
1385.0282370690534,148.38709677419354
1386.028257456829,148.38709677419354
1387.0282778446044,151.61290322580646
1388.02829823238,148.38709677419354
1389.0283186201555,148.38709677419354
1390.028339007931,141.93548387096774
1391.0283593957063,138.70967741935482
1392.0283797834818,132.258064516129
1393.0284001712573,129.03225806451613
1394.0284205590328,125.80645161290322
1395.0284409468084,125.80645161290322
1396.0284613345839,129.03225806451613
1397.0284817223594,129.03225806451613
1398.028502110135,129.03225806451613
1399.0285224979102,138.70967741935482
1400.0285428856857,138.70967741935482
1401.0285632734613,141.93548387096774
1402.0285836612368,148.38709677419354
1403.0286040490123,148.38709677419354
1404.0286244367878,141.93548387096774
1405.0286448245633,141.93548387096774
1406.0286652123386,141.93548387096774
1407.0286856001142,138.70967741935482
1408.0287059878897,138.70967741935482
1409.0287263756652,141.93548387096774
1410.0287467634407,141.93548387096774
1411.0287671512162,141.93548387096774
1412.0287875389918,141.93548387096774
1413.028807926767,141.93548387096774
1414.0288283145426,141.93548387096774
1415.028848702318,141.93548387096774
1416.0288690900936,141.93548387096774
1417.0288894778691,141.93548387096774
1418.0289098656447,141.93548387096774
1419.0289302534202,138.70967741935482
1420.0289506411955,138.70967741935482
1421.028971028971,132.258064516129
1422.0289914167465,125.80645161290322
1423.029011804522,122.58064516129032
1424.0290321922976,125.80645161290322
1425.029052580073,129.03225806451613
1426.0290729678486,129.03225806451613
1427.0290933556241,129.03225806451613
1428.0291137433994,132.258064516129
1429.029134131175,132.258064516129
1430.0291545189505,135.48387096774192
1431.029174906726,129.03225806451613
1432.0291952945015,129.03225806451613
1433.029215682277,129.03225806451613
1434.0292360700525,129.03225806451613
1435.0292564578278,132.258064516129
1436.0292768456034,132.258064516129
1437.0292972333789,135.48387096774192
1438.0293176211544,135.48387096774192
1439.02933800893,135.48387096774192
1440.0293583967054,138.70967741935482
1441.029378784481,141.93548387096774
1442.0293991722563,141.93548387096774
1443.0294195600318,148.38709677419354
1444.0294399478073,145.16129032258067
1445.0294603355828,145.16129032258067
1446.0294807233583,148.38709677419354
1447.0295011111339,145.16129032258067
1448.0295214989094,141.93548387096774
1449.0295418866847,138.70967741935482
1450.0295622744602,129.03225806451613
1451.0295826622357,129.03225806451613
1452.0296030500112,122.58064516129032
1453.0296234377868,125.80645161290322
1454.0296438255623,132.258064516129
1455.0296642133378,129.03225806451613
1456.0296846011133,129.03225806451613
1457.0297049888886,125.80645161290322
1458.0297253766641,122.58064516129032
1459.0297457644397,132.258064516129
1460.0297661522152,138.70967741935482
1461.0297865399907,141.93548387096774
1462.0298069277662,138.70967741935482
1463.0298273155418,129.03225806451613
1464.029847703317,122.58064516129032
1465.0298680910926,119.35483870967742
1466.029888478868,119.35483870967742
1467.0299088666436,122.58064516129032
1468.0299292544191,122.58064516129032
1469.0299496421947,122.58064516129032
1470.0299700299702,119.35483870967742
1471.0299904177455,122.58064516129032
1472.030010805521,125.80645161290322
1473.0300311932965,129.03225806451613
1474.030051581072,125.80645161290322
1475.0300719688476,129.03225806451613
1476.030092356623,125.80645161290322
1477.0301127443986,119.35483870967742
1478.030133132174,122.58064516129032
1479.0301535199494,129.03225806451613
1480.030173907725,138.70967741935482
1481.0301942955005,141.93548387096774
1482.030214683276,145.16129032258067
1483.0302350710515,145.16129032258067
1484.030255458827,148.38709677419354
1485.0302758466025,148.38709677419354
1486.0302962343778,145.16129032258067
1487.0303166221534,145.16129032258067
1488.0303370099289,141.93548387096774
1489.0303573977044,141.93548387096774
1490.03037778548,138.70967741935482
1491.0303981732554,138.70967741935482
1492.030418561031,138.70967741935482
1493.0304389488062,141.93548387096774
1494.0304593365818,141.93548387096774
1495.0304797243573,145.16129032258067
1496.0305001121328,154.83870967741933
1497.0305204999083,158.06451612903226
1498.0305408876839,161.29032258064515
1499.0305612754594,164.51612903225805
1500.0305816632347,164.51612903225805
1501.0306020510102,164.51612903225805
1502.0306224387857,164.51612903225805
1503.0306428265612,167.74193548387098
1504.0306632143368,170.96774193548387
1505.0306836021123,174.19354838709677
1506.0307039898878,170.96774193548387
1507.030724377663,170.96774193548387
1508.0307447654386,170.96774193548387
1509.0307651532141,177.41935483870967
1510.0307855409897,180.64516129032256
1511.0308059287652,177.41935483870967
1512.0308263165407,180.64516129032256
1513.0308467043162,183.8709677419355
1514.0308670920917,190.32258064516128
1515.030887479867,183.8709677419355
1516.0309078676426,174.19354838709677
1517.030928255418,170.96774193548387
1518.0309486431936,170.96774193548387
1519.0309690309691,170.96774193548387
1520.0309894187446,167.74193548387098
1521.0310098065202,161.29032258064515
1522.0310301942955,154.83870967741933
1523.031050582071,148.38709677419354
1524.0310709698465,151.61290322580646
1525.031091357622,151.61290322580646
1526.0311117453975,148.38709677419354
1527.031132133173,154.83870967741933
1528.0311525209486,151.61290322580646
1529.0311729087239,148.38709677419354
1530.0311932964994,145.16129032258067
1531.031213684275,148.38709677419354
1532.0312340720504,151.61290322580646
1533.031254459826,148.38709677419354
1534.0312748476015,145.16129032258067
1535.031295235377,148.38709677419354
1536.0313156231523,145.16129032258067
1537.0313360109278,141.93548387096774
1538.0313563987033,135.48387096774192
1539.0313767864789,129.03225806451613
1540.0313971742544,119.35483870967742
1541.03141756203,116.12903225806453
1542.0314379498054,112.9032258064516
1543.031458337581,109.6774193548387
1544.0314787253562,106.4516129032258
1545.0314991131318,103.2258064516129
1546.0315195009073,103.2258064516129
1547.0315398886828,93.54838709677418
1548.0315602764583,80.64516129032258
1549.0315806642338,74.19354838709677
1550.0316010520094,64.51612903225806
1551.0316214397847,58.06451612903226
1552.0316418275602,51.61290322580645
1553.0316622153357,48.387096774193544
1554.0316826031112,48.387096774193544
1555.0317029908867,48.387096774193544
1556.0317233786623,45.16129032258064
1557.0317437664378,45.16129032258064
1558.031764154213,41.935483870967744
1559.0317845419886,38.70967741935483
1560.0318049297641,29.03225806451613
1561.0318253175396,19.354838709677416
1562.0318457053152,9.677419354838708
1563.0318660930907,-19.354838709677416
1564.0318864808662,-35.483870967741936
1565.0319068686417,-45.16129032258064
1566.031927256417,-51.61290322580645
1567.0319476441925,-48.387096774193544
1568.031968031968,-54.83870967741935
1569.0319884197436,-61.29032258064516
1570.032008807519,-51.61290322580645
1571.0320291952946,-38.70967741935483
1572.0320495830701,-32.25806451612903
1573.0320699708454,-51.61290322580645
1574.032090358621,-64.51612903225806
1575.0321107463965,-80.64516129032258
1576.032131134172,-90.32258064516128
1577.0321515219475,-99.99999999999999
1578.032171909723,-109.6774193548387
1579.0321922974986,-112.9032258064516
1580.0322126852739,-112.9032258064516
1581.0322330730494,-112.9032258064516
1582.032253460825,-112.9032258064516
1583.0322738486004,-112.9032258064516
1584.032294236376,-112.9032258064516
1585.0323146241515,-116.12903225806453
1586.032335011927,-132.258064516129
1587.0323553997023,-145.16129032258067
1588.0323757874778,-154.83870967741933
1589.0323961752533,-167.74193548387098
1590.0324165630288,-174.19354838709677
1591.0324369508044,-180.64516129032256
1592.03245733858,-180.64516129032256
1593.0324777263554,-190.32258064516128
1594.032498114131,-190.32258064516128
1595.0325185019062,-187.09677419354836
1596.0325388896817,-193.54838709677418
1597.0325592774573,-199.99999999999997
1598.0325796652328,-193.54838709677418
1599.0326000530083,-190.32258064516128
1600.0326204407838,-180.64516129032256
1601.0326408285594,-180.64516129032256
1602.0326612163346,-183.8709677419355
1603.0326816041102,-180.64516129032256
1604.0327019918857,-183.8709677419355
1605.0327223796612,-180.64516129032256
1606.0327427674367,-174.19354838709677
1607.0327631552123,-170.96774193548387
1608.0327835429878,-170.96774193548387
1609.032803930763,-174.19354838709677
1610.0328243185386,-177.41935483870967
1611.032844706314,-177.41935483870967
1612.0328650940896,-174.19354838709677
1613.0328854818652,-170.96774193548387
1614.0329058696407,-170.96774193548387
1615.0329262574162,-164.51612903225805
1616.0329466451915,-154.83870967741933
1617.032967032967,-154.83870967741933
1618.0329874207425,-170.96774193548387
1619.033007808518,-177.41935483870967
1620.0330281962936,-177.41935483870967
1621.033048584069,-187.09677419354836
1622.0330689718446,-196.7741935483871
1623.0330893596201,-199.99999999999997
1624.0331097473954,-196.7741935483871
1625.033130135171,-193.54838709677418
1626.0331505229465,-193.54838709677418
1627.033170910722,-187.09677419354836
1628.0331912984975,-187.09677419354836
1629.033211686273,-180.64516129032256
1630.0332320740486,-170.96774193548387
1631.0332524618238,-167.74193548387098
1632.0332728495994,-161.29032258064515
1633.033293237375,-161.29032258064515
1634.0333136251504,-158.06451612903226
1635.033334012926,-151.61290322580646
1636.0333544007015,-154.83870967741933
1637.033374788477,-158.06451612903226
1638.0333951762523,-164.51612903225805
1639.0334155640278,-170.96774193548387
1640.0334359518033,-167.74193548387098
1641.0334563395788,-164.51612903225805
1642.0334767273544,-158.06451612903226
1643.0334971151299,-154.83870967741933
1644.0335175029054,-145.16129032258067
1645.0335378906807,-141.93548387096774
1646.0335582784562,-141.93548387096774
1647.0335786662317,-138.70967741935482
1648.0335990540073,-148.38709677419354
1649.0336194417828,-148.38709677419354
1650.0336398295583,-151.61290322580646
1651.0336602173338,-154.83870967741933
1652.0336806051093,-154.83870967741933
1653.0337009928846,-158.06451612903226
1654.0337213806602,-158.06451612903226
1655.0337417684357,-154.83870967741933
1656.0337621562112,-145.16129032258067
1657.0337825439867,-135.48387096774192
1658.0338029317622,-132.258064516129
1659.0338233195378,-129.03225806451613
1660.033843707313,-132.258064516129
1661.0338640950886,-129.03225806451613
1662.033884482864,-122.58064516129032
1663.0339048706396,-122.58064516129032
1664.0339252584151,-135.48387096774192
1665.0339456461907,-135.48387096774192
1666.0339660339662,-132.258064516129
1667.0339864217415,-132.258064516129
1668.034006809517,-129.03225806451613
1669.0340271972925,-119.35483870967742
1670.034047585068,-112.9032258064516
1671.0340679728436,-106.4516129032258
1672.034088360619,-103.2258064516129
1673.0341087483946,-93.54838709677418
1674.03412913617,-77.41935483870967
1675.0341495239454,-67.74193548387096
1676.034169911721,-64.51612903225806
1677.0341902994965,-64.51612903225806
1678.034210687272,-64.51612903225806
1679.0342310750475,-67.74193548387096
1680.034251462823,-77.41935483870967
1681.0342718505985,-87.09677419354838
1682.0342922383738,-93.54838709677418
1683.0343126261494,-99.99999999999999
1684.0343330139249,-103.2258064516129
1685.0343534017004,-106.4516129032258
1686.034373789476,-106.4516129032258
1687.0343941772514,-103.2258064516129
1688.034414565027,-93.54838709677418
1689.0344349528023,-87.09677419354838
1690.0344553405778,-83.87096774193549
1691.0344757283533,-80.64516129032258
1692.0344961161288,-77.41935483870967
1693.0345165039043,-77.41935483870967
1694.0345368916799,-80.64516129032258
1695.0345572794554,-77.41935483870967
1696.0345776672307,-77.41935483870967
1697.0345980550062,-74.19354838709677
1698.0346184427817,-67.74193548387096
1699.0346388305572,-64.51612903225806
1700.0346592183328,-64.51612903225806
1701.0346796061083,-64.51612903225806
1702.0346999938838,-67.74193548387096
1703.0347203816593,-67.74193548387096
1704.0347407694346,-67.74193548387096
1705.0347611572101,-67.74193548387096
1706.0347815449857,-64.51612903225806
1707.0348019327612,-64.51612903225806
1708.0348223205367,-64.51612903225806
1709.0348427083122,-64.51612903225806
1710.0348630960877,-61.29032258064516
1711.034883483863,-61.29032258064516
1712.0349038716386,-64.51612903225806
1713.034924259414,-61.29032258064516
1714.0349446471896,-58.06451612903226
1715.0349650349651,-54.83870967741935
1716.0349854227406,-58.06451612903226
1717.0350058105162,-58.06451612903226
1718.0350261982915,-61.29032258064516
1719.035046586067,-61.29032258064516
1720.0350669738425,-61.29032258064516
1721.035087361618,-64.51612903225806
1722.0351077493935,-61.29032258064516
1723.035128137169,-58.06451612903226
1724.0351485249446,-51.61290322580645
1725.0351689127199,-48.387096774193544
1726.0351893004954,-48.387096774193544
1727.035209688271,-41.935483870967744
1728.0352300760464,-38.70967741935483
1729.035250463822,-35.483870967741936
1730.0352708515975,-32.25806451612903
1731.035291239373,-25.806451612903224
1732.0353116271485,-16.129032258064516
1733.0353320149238,-12.903225806451612
1734.0353524026993,-12.903225806451612
1735.0353727904749,-19.354838709677416
1736.0353931782504,-25.806451612903224
1737.035413566026,-25.806451612903224
1738.0354339538014,-25.806451612903224
1739.035454341577,-29.03225806451613
1740.0354747293522,-32.25806451612903
1741.0354951171278,-29.03225806451613
1742.0355155049033,-25.806451612903224
1743.0355358926788,-19.354838709677416
1744.0355562804543,-16.129032258064516
1745.0355766682299,-9.677419354838708
1746.0355970560054,-9.677419354838708
1747.0356174437807,-16.129032258064516
1748.0356378315562,-32.25806451612903
1749.0356582193317,-35.483870967741936
1750.0356786071072,-35.483870967741936
1751.0356989948828,-29.03225806451613
1752.0357193826583,-25.806451612903224
1753.0357397704338,-25.806451612903224
1754.035760158209,-22.58064516129032
1755.0357805459846,-16.129032258064516
1756.0358009337601,-19.354838709677416
1757.0358213215356,-22.58064516129032
1758.0358417093112,-22.58064516129032
1759.0358620970867,-16.129032258064516
1760.0358824848622,-12.903225806451612
1761.0359028726377,-12.903225806451612
1762.035923260413,-12.903225806451612
1763.0359436481885,-16.129032258064516
1764.035964035964,-16.129032258064516
1765.0359844237396,-22.58064516129032
1766.036004811515,-25.806451612903224
1767.0360251992906,-29.03225806451613
1768.0360455870662,-32.25806451612903
1769.0360659748414,-29.03225806451613
1770.036086362617,-19.354838709677416
1771.0361067503925,-12.903225806451612
1772.036127138168,-9.677419354838708
1773.0361475259435,-3.225806451612903
1774.036167913719,0.0
1775.0361883014946,9.677419354838708
1776.0362086892699,12.903225806451612
1777.0362290770454,12.903225806451612
1778.036249464821,9.677419354838708
1779.0362698525964,0.0
1780.036290240372,-9.677419354838708
1781.0363106281475,-16.129032258064516
1782.036331015923,-19.354838709677416
1783.0363514036983,-19.354838709677416
1784.0363717914738,-16.129032258064516
1785.0363921792493,-25.806451612903224
1786.0364125670249,-29.03225806451613
1787.0364329548004,-29.03225806451613
1788.036453342576,-32.25806451612903
1789.0364737303514,-29.03225806451613
1790.036494118127,-22.58064516129032
1791.0365145059022,-12.903225806451612
1792.0365348936778,-6.451612903225806
1793.0365552814533,-6.451612903225806
1794.0365756692288,-6.451612903225806
1795.0365960570043,-9.677419354838708
1796.0366164447798,-12.903225806451612
1797.0366368325554,-9.677419354838708
1798.0366572203307,-3.225806451612903
1799.0366776081062,3.225806451612903
1800.0366979958817,6.451612903225806
1801.0367183836572,6.451612903225806
1802.0367387714327,6.451612903225806
1803.0367591592083,3.225806451612903
1804.0367795469838,3.225806451612903
1805.036799934759,-3.225806451612903
1806.0368203225346,-6.451612903225806
1807.0368407103101,-9.677419354838708
1808.0368610980856,-12.903225806451612
1809.0368814858612,-16.129032258064516
1810.0369018736367,-22.58064516129032
1811.0369222614122,-29.03225806451613
1812.0369426491875,-29.03225806451613
1813.036963036963,-25.806451612903224
1814.0369834247385,-25.806451612903224
1815.037003812514,-22.58064516129032
1816.0370242002896,-16.129032258064516
1817.037044588065,-16.129032258064516
1818.0370649758406,-19.354838709677416
1819.0370853636161,-22.58064516129032
1820.0371057513914,-19.354838709677416
1821.037126139167,-25.806451612903224
1822.0371465269425,-22.58064516129032
1823.037166914718,-9.677419354838708
1824.0371873024935,-3.225806451612903
1825.037207690269,-3.225806451612903
1826.0372280780446,-3.225806451612903
1827.0372484658199,-3.225806451612903
1828.0372688535954,-3.225806451612903
1829.037289241371,0.0
1830.0373096291464,6.451612903225806
1831.037330016922,3.225806451612903
1832.0373504046975,-3.225806451612903
1833.037370792473,-9.677419354838708
1834.0373911802483,-12.903225806451612
1835.0374115680238,-16.129032258064516
1836.0374319557993,-22.58064516129032
1837.0374523435748,-22.58064516129032
1838.0374727313504,-22.58064516129032
1839.0374931191259,-19.354838709677416
1840.0375135069014,-19.354838709677416
1841.037533894677,-22.58064516129032
1842.0375542824522,-22.58064516129032
1843.0375746702277,-22.58064516129032
1844.0375950580033,-19.354838709677416
1845.0376154457788,-19.354838709677416
1846.0376358335543,-19.354838709677416
1847.0376562213298,-16.129032258064516
1848.0376766091053,-16.129032258064516
1849.0376969968806,-16.129032258064516
1850.0377173846562,-22.58064516129032
1851.0377377724317,-22.58064516129032
1852.0377581602072,-22.58064516129032
1853.0377785479827,-22.58064516129032
1854.0377989357582,-22.58064516129032
1855.0378193235338,-25.806451612903224
1856.037839711309,-25.806451612903224
1857.0378600990846,-16.129032258064516
1858.03788048686,-12.903225806451612
1859.0379008746356,-9.677419354838708
1860.0379212624111,-16.129032258064516
1861.0379416501867,-16.129032258064516
1862.0379620379622,-9.677419354838708
1863.0379824257375,-9.677419354838708
1864.038002813513,-16.129032258064516
1865.0380232012885,-12.903225806451612
1866.038043589064,-19.354838709677416
1867.0380639768396,-22.58064516129032
1868.038084364615,-25.806451612903224
1869.0381047523906,-35.483870967741936
1870.0381251401661,-25.806451612903224
1871.0381455279414,-22.58064516129032
1872.038165915717,-9.677419354838708
1873.0381863034925,-3.225806451612903
1874.038206691268,3.225806451612903
1875.0382270790435,9.677419354838708
1876.038247466819,12.903225806451612
1877.0382678545946,12.903225806451612
1878.0382882423698,9.677419354838708
1879.0383086301454,0.0
1880.038329017921,-6.451612903225806
1881.0383494056964,-12.903225806451612
1882.038369793472,-9.677419354838708
1883.0383901812475,-3.225806451612903
1884.038410569023,0.0
1885.0384309567983,-3.225806451612903
1886.0384513445738,-9.677419354838708
1887.0384717323493,-12.903225806451612
1888.0384921201248,-12.903225806451612
1889.0385125079004,-12.903225806451612
1890.0385328956759,-6.451612903225806
1891.0385532834514,-3.225806451612903
1892.0385736712267,0.0
1893.0385940590022,0.0
1894.0386144467777,-3.225806451612903
1895.0386348345532,-9.677419354838708
1896.0386552223288,-9.677419354838708
1897.0386756101043,-3.225806451612903
1898.0386959978798,6.451612903225806
1899.0387163856553,12.903225806451612
1900.0387367734306,12.903225806451612
1901.0387571612061,3.225806451612903
1902.0387775489817,-12.903225806451612
1903.0387979367572,-22.58064516129032
1904.0388183245327,-32.25806451612903
1905.0388387123082,-35.483870967741936
1906.0388591000838,-32.25806451612903
1907.038879487859,-29.03225806451613
1908.0388998756346,-25.806451612903224
1909.03892026341,-19.354838709677416
1910.0389406511856,-16.129032258064516
1911.0389610389611,-16.129032258064516
1912.0389814267367,-12.903225806451612
1913.0390018145122,-9.677419354838708
1914.0390222022875,-9.677419354838708
1915.039042590063,-6.451612903225806
1916.0390629778385,-6.451612903225806
1917.039083365614,-3.225806451612903
1918.0391037533896,-6.451612903225806
1919.039124141165,-6.451612903225806
1920.0391445289406,-6.451612903225806
1921.039164916716,-3.225806451612903
1922.0391853044914,0.0
1923.039205692267,-3.225806451612903
1924.0392260800425,-6.451612903225806
1925.039246467818,-3.225806451612903
1926.0392668555935,0.0
1927.039287243369,0.0
1928.0393076311445,3.225806451612903
1929.0393280189198,6.451612903225806
1930.0393484066954,6.451612903225806
1931.0393687944709,3.225806451612903
1932.0393891822464,3.225806451612903
1933.039409570022,0.0
1934.0394299577974,3.225806451612903
1935.039450345573,6.451612903225806
1936.0394707333483,6.451612903225806
1937.0394911211238,6.451612903225806
1938.0395115088993,0.0
1939.0395318966748,-3.225806451612903
1940.0395522844503,-6.451612903225806
1941.0395726722259,-9.677419354838708
1942.0395930600014,-9.677419354838708
1943.0396134477767,-6.451612903225806
1944.0396338355522,0.0
1945.0396542233277,3.225806451612903
1946.0396746111032,3.225806451612903
1947.0396949988788,-3.225806451612903
1948.0397153866543,-6.451612903225806
1949.0397357744298,-9.677419354838708
1950.039756162205,-9.677419354838708
1951.0397765499806,-12.903225806451612
1952.0397969377561,-9.677419354838708
1953.0398173255317,-12.903225806451612
1954.0398377133072,-12.903225806451612
1955.0398581010827,-12.903225806451612
1956.0398784888582,-9.677419354838708
1957.0398988766337,-9.677419354838708
1958.039919264409,-12.903225806451612
1959.0399396521846,-12.903225806451612
1960.03996003996,-9.677419354838708
1961.0399804277356,-9.677419354838708
1962.0400008155111,-6.451612903225806
1963.0400212032866,-9.677419354838708
1964.0400415910622,-12.903225806451612
1965.0400619788375,-22.58064516129032
1966.040082366613,-25.806451612903224
1967.0401027543885,-25.806451612903224
1968.040123142164,-22.58064516129032
1969.0401435299395,-16.129032258064516
1970.040163917715,-9.677419354838708
1971.0401843054906,-9.677419354838708
1972.0402046932659,-6.451612903225806
1973.0402250810414,-6.451612903225806
1974.040245468817,0.0
1975.0402658565924,3.225806451612903
1976.040286244368,3.225806451612903
1977.0403066321435,-3.225806451612903
1978.040327019919,-3.225806451612903
1979.0403474076945,-3.225806451612903
1980.0403677954698,-6.451612903225806
1981.0403881832453,-12.903225806451612
1982.0404085710209,-12.903225806451612
1983.0404289587964,-12.903225806451612
1984.040449346572,-9.677419354838708
1985.0404697343474,0.0
1986.040490122123,0.0
1987.0405105098982,6.451612903225806
1988.0405308976738,9.677419354838708
1989.0405512854493,12.903225806451612
1990.0405716732248,16.129032258064516
1991.0405920610003,19.354838709677416
1992.0406124487758,16.129032258064516
1993.0406328365514,9.677419354838708
1994.0406532243267,9.677419354838708
1995.0406736121022,6.451612903225806
1996.0406939998777,0.0
1997.0407143876532,0.0
1998.0407347754287,-3.225806451612903
1999.0407551632043,0.0
2000.0407755509798,-3.225806451612903
2001.040795938755,-6.451612903225806
2002.0408163265306,-9.677419354838708
2003.0408367143061,-6.451612903225806
2004.0408571020816,-3.225806451612903
2005.0408774898572,0.0
2006.0408978776327,3.225806451612903
2007.0409182654082,0.0
2008.0409386531837,0.0
2009.040959040959,3.225806451612903
2010.0409794287345,3.225806451612903
2011.04099981651,6.451612903225806
2012.0410202042856,9.677419354838708
2013.041040592061,12.903225806451612
2014.0410609798366,9.677419354838708
2015.0410813676122,12.903225806451612
2016.0411017553874,9.677419354838708
2017.041122143163,6.451612903225806
2018.0411425309385,0.0
2019.041162918714,-3.225806451612903
2020.0411833064895,-3.225806451612903
2021.041203694265,-3.225806451612903
2022.0412240820406,-3.225806451612903
2023.0412444698159,3.225806451612903
2024.0412648575914,12.903225806451612
2025.041285245367,16.129032258064516
2026.0413056331424,19.354838709677416
2027.041326020918,19.354838709677416
2028.0413464086935,19.354838709677416
2029.041366796469,16.129032258064516
2030.0413871842443,19.354838709677416
2031.0414075720198,16.129032258064516
2032.0414279597953,16.129032258064516
2033.0414483475708,12.903225806451612
2034.0414687353464,12.903225806451612
2035.041489123122,16.129032258064516
2036.0415095108974,19.354838709677416
2037.041529898673,22.58064516129032
2038.0415502864482,19.354838709677416
2039.0415706742237,16.129032258064516
2040.0415910619993,19.354838709677416
2041.0416114497748,19.354838709677416
2042.0416318375503,19.354838709677416
2043.0416522253258,19.354838709677416
2044.0416726131014,19.354838709677416
2045.0416930008766,22.58064516129032
2046.0417133886522,19.354838709677416
2047.0417337764277,9.677419354838708
2048.041754164203,6.451612903225806
2049.0417745519785,12.903225806451612
2050.0417949397543,16.129032258064516
2051.0418153275295,19.354838709677416
2052.0418357153053,22.58064516129032
2053.0418561030806,25.806451612903224
2054.0418764908563,25.806451612903224
2055.0418968786316,25.806451612903224
2056.041917266407,22.58064516129032
2057.0419376541827,29.03225806451613
2058.041958041958,35.483870967741936
2059.0419784297337,38.70967741935483
2060.041998817509,38.70967741935483
2061.0420192052848,38.70967741935483
2062.04203959306,35.483870967741936
2063.0420599808353,32.25806451612903
2064.042080368611,35.483870967741936
2065.0421007563864,29.03225806451613
2066.042121144162,25.806451612903224
2067.0421415319374,22.58064516129032
2068.042161919713,12.903225806451612
2069.0421823074885,16.129032258064516
2070.0422026952638,22.58064516129032
2071.0422230830395,25.806451612903224
2072.042243470815,25.806451612903224
2073.0422638585906,25.806451612903224
2074.042284246366,25.806451612903224
2075.0423046341416,19.354838709677416
2076.042325021917,19.354838709677416
2077.0423454096926,19.354838709677416
2078.042365797468,16.129032258064516
2079.0423861852432,19.354838709677416
2080.042406573019,22.58064516129032
2081.0424269607943,25.806451612903224
2082.04244734857,29.03225806451613
2083.0424677363453,29.03225806451613
2084.042488124121,35.483870967741936
2085.0425085118964,32.25806451612903
2086.0425288996717,29.03225806451613
2087.0425492874474,32.25806451612903
2088.0425696752227,38.70967741935483
2089.0425900629984,38.70967741935483
2090.0426104507737,41.935483870967744
2091.0426308385495,45.16129032258064
2092.042651226325,45.16129032258064
2093.0426716141,45.16129032258064
2094.042692001876,45.16129032258064
2095.042712389651,45.16129032258064
2096.042732777427,45.16129032258064
2097.042753165202,51.61290322580645
2098.042773552978,54.83870967741935
2099.042793940753,58.06451612903226
2100.0428143285285,54.83870967741935
2101.0428347163042,54.83870967741935
2102.0428551040795,58.06451612903226
2103.0428754918553,61.29032258064516
2104.0428958796306,61.29032258064516
2105.0429162674063,64.51612903225806
2106.0429366551816,64.51612903225806
2107.042957042957,64.51612903225806
2108.0429774307327,67.74193548387096
2109.042997818508,64.51612903225806
2110.0430182062837,70.96774193548387
2111.043038594059,70.96774193548387
2112.0430589818347,67.74193548387096
2113.04307936961,70.96774193548387
2114.0430997573853,77.41935483870967
2115.043120145161,77.41935483870967
2116.0431405329364,74.19354838709677
2117.043160920712,70.96774193548387
2118.0431813084874,64.51612903225806
2119.043201696263,61.29032258064516
2120.0432220840385,51.61290322580645
2121.0432424718138,48.387096774193544
2122.0432628595895,45.16129032258064
2123.043283247365,35.483870967741936
2124.0433036351405,25.806451612903224
2125.043324022916,12.903225806451612
2126.0433444106916,9.677419354838708
2127.043364798467,9.677419354838708
2128.043385186242,16.129032258064516
2129.043405574018,25.806451612903224
2130.043425961793,25.806451612903224
2131.043446349569,22.58064516129032
2132.0434667373443,12.903225806451612
2133.04348712512,3.225806451612903
2134.0435075128953,3.225806451612903
2135.043527900671,9.677419354838708
2136.0435482884463,9.677419354838708
2137.0435686762216,12.903225806451612
2138.0435890639974,9.677419354838708
2139.0436094517727,9.677419354838708
2140.0436298395484,9.677419354838708
2141.0436502273237,9.677419354838708
2142.0436706150995,9.677419354838708
2143.0436910028748,3.225806451612903
2144.04371139065,3.225806451612903
2145.043731778426,-6.451612903225806
2146.043752166201,-9.677419354838708
2147.043772553977,-6.451612903225806
2148.043792941752,-6.451612903225806
2149.043813329528,-12.903225806451612
2150.043833717303,-16.129032258064516
2151.0438541050785,-16.129032258064516
2152.0438744928542,-12.903225806451612
2153.0438948806295,-9.677419354838708
2154.0439152684053,-9.677419354838708
2155.0439356561806,-9.677419354838708
2156.0439560439563,-3.225806451612903
2157.0439764317316,9.677419354838708
2158.043996819507,9.677419354838708
2159.0440172072826,0.0
2160.044037595058,-9.677419354838708
2161.0440579828337,-16.129032258064516
2162.044078370609,-29.03225806451613
2163.0440987583847,-25.806451612903224
2164.04411914616,-16.129032258064516
2165.0441395339353,-12.903225806451612
2166.044159921711,-12.903225806451612
2167.0441803094864,-9.677419354838708
2168.044200697262,-9.677419354838708
2169.0442210850374,-6.451612903225806
2170.044241472813,-9.677419354838708
2171.0442618605884,-12.903225806451612
2172.0442822483637,-9.677419354838708
2173.0443026361395,-12.903225806451612
2174.044323023915,-16.129032258064516
2175.0443434116905,-12.903225806451612
2176.044363799466,-16.129032258064516
2177.0443841872416,-9.677419354838708
2178.044404575017,-6.451612903225806
2179.044424962792,0.0
2180.044445350568,0.0
2181.044465738343,0.0
2182.044486126119,-3.225806451612903
2183.0445065138942,0.0
2184.04452690167,3.225806451612903
2185.0445472894453,3.225806451612903
2186.0445676772206,6.451612903225806
2187.0445880649963,16.129032258064516
2188.0446084527716,22.58064516129032
2189.0446288405474,29.03225806451613
2190.0446492283227,38.70967741935483
2191.0446696160984,45.16129032258064
2192.0446900038737,48.387096774193544
2193.0447103916495,54.83870967741935
2194.0447307794248,67.74193548387096
2195.0447511672,87.09677419354838
2196.044771554976,103.2258064516129
2197.044791942751,125.80645161290322
2198.044812330527,154.83870967741933
2199.044832718302,180.64516129032256
2200.044853106078,209.6774193548387
2201.044873493853,241.93548387096774
2202.0448938816285,274.19354838709677
2203.044914269404,309.67741935483866
2204.0449346571795,338.7096774193548
2205.0449550449553,370.96774193548384
2206.0449754327306,399.99999999999994
2207.0449958205063,429.0322580645161
2208.0450162082816,451.6129032258064
2209.045036596057,467.741935483871
2210.0450569838326,490.3225806451613
2211.045077371608,509.67741935483866
2212.0450977593837,522.5806451612904
2213.045118147159,529.032258064516
2214.0451385349347,525.8064516129032
2215.04515892271,506.45161290322585
2216.0451793104853,477.4193548387097
2217.045199698261,441.9354838709677
2218.0452200860364,396.77419354838713
2219.045240473812,354.83870967741933
2220.0452608615874,309.67741935483866
2221.045281249363,258.06451612903226
2222.0453016371384,190.32258064516128
2223.0453220249137,109.6774193548387
2224.0453424126895,9.677419354838708
2225.0453628004648,-99.99999999999999
2226.0453831882405,-209.6774193548387
2227.045403576016,-309.67741935483866
2228.0454239637916,-406.4516129032258
2229.045444351567,-500.0
2230.045464739342,-580.6451612903227
2231.045485127118,-658.0645161290322
2232.045505514893,-719.3548387096774
2233.045525902669,-764.5161290322579
2234.0455462904442,-787.0967741935484
2235.04556667822,-799.9999999999999
2236.0455870659953,-809.6774193548388
2237.0456074537706,-809.6774193548388
2238.0456278415463,-799.9999999999999
2239.0456482293216,-787.0967741935484
2240.0456686170974,-774.1935483870967
2241.0456890048727,-751.6129032258065
2242.0457093926484,-719.3548387096774
2243.0457297804237,-683.8709677419355
2244.0457501681994,-641.9354838709677
2245.0457705559747,-593.5483870967741
2246.04579094375,-548.3870967741935
2247.045811331526,-506.45161290322585
2248.045831719301,-467.741935483871
2249.045852107077,-429.0322580645161
2250.045872494852,-393.5483870967742
2251.045892882628,-358.06451612903226
2252.045913270403,-325.8064516129032
2253.0459336581785,-293.54838709677415
2254.045954045954,-258.06451612903226
2255.0459744337295,-225.8064516129032
2256.0459948215052,-190.32258064516128
2257.0460152092805,-154.83870967741933
2258.0460355970563,-122.58064516129032
2259.0460559848316,-90.32258064516128
2260.046076372607,-64.51612903225806
2261.0460967603826,-45.16129032258064
2262.046117148158,-29.03225806451613
2263.0461375359337,-12.903225806451612
2264.046157923709,3.225806451612903
2265.0461783114847,19.354838709677416
2266.04619869926,32.25806451612903
2267.0462190870353,51.61290322580645
2268.046239474811,70.96774193548387
2269.0462598625863,90.32258064516128
2270.046280250362,96.77419354838709
2271.0463006381374,96.77419354838709
2272.046321025913,99.99999999999999
2273.0463414136884,103.2258064516129
2274.0463618014637,109.6774193548387
2275.0463821892395,116.12903225806453
2276.0464025770148,119.35483870967742
2277.0464229647905,125.80645161290322
2278.046443352566,132.258064516129
2279.0464637403416,138.70967741935482
2280.046484128117,141.93548387096774
2281.046504515892,141.93548387096774
2282.046524903668,148.38709677419354
2283.046545291443,145.16129032258067
2284.046565679219,138.70967741935482
2285.046586066994,132.258064516129
2286.04660645477,125.80645161290322
2287.0466268425453,122.58064516129032
2288.0466472303206,122.58064516129032
2289.0466676180963,135.48387096774192
2290.0466880058716,138.70967741935482
2291.0467083936474,138.70967741935482
2292.0467287814226,135.48387096774192
2293.0467491691984,138.70967741935482
2294.0467695569737,145.16129032258067
2295.046789944749,151.61290322580646
2296.0468103325247,148.38709677419354
2297.0468307203,148.38709677419354
2298.0468511080758,145.16129032258067
2299.046871495851,148.38709677419354
2300.046891883627,154.83870967741933
2301.046912271402,154.83870967741933
2302.046932659178,151.61290322580646
2303.046953046953,145.16129032258067
2304.0469734347284,145.16129032258067
2305.046993822504,148.38709677419354
2306.0470142102795,145.16129032258067
2307.0470345980552,148.38709677419354
2308.0470549858305,151.61290322580646
2309.0470753736063,148.38709677419354
2310.0470957613816,141.93548387096774
2311.047116149157,138.70967741935482
2312.0471365369326,135.48387096774192
2313.047156924708,132.258064516129
2314.0471773124837,129.03225806451613
2315.047197700259,122.58064516129032
2316.0472180880347,119.35483870967742
2317.04723847581,122.58064516129032
2318.0472588635853,122.58064516129032
2319.047279251361,119.35483870967742
2320.0472996391363,116.12903225806453
2321.047320026912,116.12903225806453
2322.0473404146874,116.12903225806453
2323.047360802463,116.12903225806453
2324.0473811902384,119.35483870967742
2325.0474015780137,122.58064516129032
2326.0474219657895,129.03225806451613
2327.0474423535647,132.258064516129
2328.0474627413405,132.258064516129
2329.047483129116,129.03225806451613
2330.0475035168915,122.58064516129032
2331.047523904667,122.58064516129032
2332.047544292442,132.258064516129
2333.047564680218,138.70967741935482
2334.047585067993,145.16129032258067
2335.047605455769,148.38709677419354
2336.047625843544,141.93548387096774
2337.04764623132,141.93548387096774
2338.0476666190953,135.48387096774192
2339.0476870068705,129.03225806451613
2340.0477073946463,116.12903225806453
2341.0477277824216,109.6774193548387
2342.0477481701973,109.6774193548387
2343.0477685579726,112.9032258064516
2344.0477889457484,119.35483870967742
2345.0478093335237,122.58064516129032
2346.047829721299,129.03225806451613
2347.0478501090747,138.70967741935482
2348.04787049685,135.48387096774192
2349.0478908846258,129.03225806451613
2350.047911272401,125.80645161290322
2351.047931660177,122.58064516129032
2352.047952047952,122.58064516129032
2353.047972435728,122.58064516129032
2354.047992823503,125.80645161290322
2355.0480132112784,125.80645161290322
2356.048033599054,122.58064516129032
2357.0480539868295,122.58064516129032
2358.048074374605,122.58064516129032
2359.0480947623805,122.58064516129032
2360.0481151501563,125.80645161290322
2361.0481355379316,125.80645161290322
2362.048155925707,132.258064516129
2363.0481763134826,135.48387096774192
2364.048196701258,135.48387096774192
2365.0482170890336,129.03225806451613
2366.048237476809,129.03225806451613
2367.0482578645847,129.03225806451613
2368.04827825236,125.80645161290322
2369.0482986401353,122.58064516129032
2370.048319027911,119.35483870967742
2371.0483394156863,116.12903225806453
2372.048359803462,112.9032258064516
2373.0483801912374,112.9032258064516
2374.048400579013,112.9032258064516
2375.0484209667884,112.9032258064516
2376.0484413545637,112.9032258064516
2377.0484617423394,116.12903225806453
2378.0484821301147,122.58064516129032
2379.0485025178905,129.03225806451613
2380.048522905666,129.03225806451613
2381.0485432934415,125.80645161290322
2382.048563681217,125.80645161290322
2383.048584068992,122.58064516129032
2384.048604456768,119.35483870967742
2385.048624844543,116.12903225806453
2386.048645232319,109.6774193548387
2387.048665620094,106.4516129032258
2388.04868600787,112.9032258064516
2389.0487063956452,119.35483870967742
2390.0487267834205,122.58064516129032
2391.0487471711963,129.03225806451613
2392.0487675589716,132.258064516129
2393.0487879467473,129.03225806451613
2394.0488083345226,129.03225806451613
2395.0488287222984,132.258064516129
2396.0488491100737,138.70967741935482
2397.048869497849,145.16129032258067
2398.0488898856247,148.38709677419354
2399.0489102734,151.61290322580646
2400.0489306611757,151.61290322580646
2401.048951048951,151.61290322580646
2402.048971436727,145.16129032258067
2403.048991824502,141.93548387096774
2404.0490122122774,145.16129032258067
2405.049032600053,141.93548387096774
2406.0490529878284,141.93548387096774
2407.049073375604,141.93548387096774
2408.0490937633795,141.93548387096774
2409.049114151155,145.16129032258067
2410.0491345389305,148.38709677419354
2411.0491549267063,145.16129032258067
2412.0491753144815,145.16129032258067
2413.049195702257,141.93548387096774
2414.0492160900326,141.93548387096774
2415.049236477808,158.06451612903226
2416.0492568655836,164.51612903225805
2417.049277253359,164.51612903225805
2418.0492976411347,164.51612903225805
2419.04931802891,164.51612903225805
2420.0493384166853,164.51612903225805
2421.049358804461,167.74193548387098
2422.0493791922363,170.96774193548387
2423.049399580012,164.51612903225805
2424.0494199677873,158.06451612903226
2425.049440355563,154.83870967741933
2426.0494607433384,145.16129032258067
2427.0494811311137,138.70967741935482
2428.0495015188894,141.93548387096774
2429.0495219066647,141.93548387096774
2430.0495422944405,141.93548387096774
2431.0495626822158,138.70967741935482
2432.0495830699915,138.70967741935482
2433.049603457767,138.70967741935482
2434.049623845542,138.70967741935482
2435.049644233318,138.70967741935482
2436.049664621093,135.48387096774192
2437.049685008869,129.03225806451613
2438.049705396644,122.58064516129032
2439.04972578442,119.35483870967742
2440.0497461721952,119.35483870967742
2441.0497665599705,116.12903225806453
2442.0497869477463,116.12903225806453
2443.0498073355216,112.9032258064516
2444.0498277232973,112.9032258064516
2445.0498481110726,106.4516129032258
2446.0498684988484,103.2258064516129
2447.0498888866236,99.99999999999999
2448.049909274399,96.77419354838709
2449.0499296621747,96.77419354838709
2450.04995004995,96.77419354838709
2451.0499704377257,93.54838709677418
2452.049990825501,90.32258064516128
2453.050011213277,83.87096774193549
2454.050031601052,80.64516129032258
2455.0500519888274,74.19354838709677
2456.050072376603,64.51612903225806
2457.0500927643784,64.51612903225806
2458.050113152154,61.29032258064516
2459.0501335399294,51.61290322580645
2460.050153927705,41.935483870967744
2461.0501743154805,38.70967741935483
2462.050194703256,25.806451612903224
2463.0502150910315,16.129032258064516
2464.050235478807,9.677419354838708
2465.0502558665826,-6.451612903225806
2466.050276254358,-16.129032258064516
2467.0502966421336,-25.806451612903224
2468.050317029909,-35.483870967741936
2469.0503374176847,-41.935483870967744
2470.05035780546,-48.387096774193544
2471.0503781932352,-51.61290322580645
2472.050398581011,-54.83870967741935
2473.0504189687863,-61.29032258064516
2474.050439356562,-70.96774193548387
2475.0504597443373,-77.41935483870967
2476.050480132113,-83.87096774193549
2477.0505005198884,-87.09677419354838
2478.0505209076637,-93.54838709677418
2479.0505412954394,-96.77419354838709
2480.0505616832147,-106.4516129032258
2481.0505820709905,-112.9032258064516
2482.0506024587658,-116.12903225806453
2483.0506228465415,-129.03225806451613
2484.050643234317,-138.70967741935482
2485.050663622092,-151.61290322580646
2486.050684009868,-161.29032258064515
2487.050704397643,-167.74193548387098
2488.050724785419,-174.19354838709677
2489.050745173194,-177.41935483870967
2490.05076556097,-183.8709677419355
2491.050785948745,-187.09677419354836
2492.0508063365205,-183.8709677419355
2493.0508267242963,-183.8709677419355
2494.0508471120716,-187.09677419354836
2495.0508674998473,-190.32258064516128
2496.0508878876226,-190.32258064516128
2497.0509082753983,-180.64516129032256
2498.0509286631736,-167.74193548387098
2499.050949050949,-164.51612903225805
2500.0509694387247,-170.96774193548387
2501.0509898265,-183.8709677419355
2502.0510102142757,-190.32258064516128
2503.051030602051,-190.32258064516128
2504.0510509898268,-190.32258064516128
2505.051071377602,-190.32258064516128
2506.0510917653774,-190.32258064516128
2507.051112153153,-193.54838709677418
2508.0511325409284,-190.32258064516128
2509.051152928704,-190.32258064516128
2510.0511733164794,-196.7741935483871
2511.051193704255,-199.99999999999997
2512.0512140920305,-196.7741935483871
2513.0512344798058,-199.99999999999997
2514.0512548675815,-196.7741935483871
2515.051275255357,-199.99999999999997
2516.0512956431326,-199.99999999999997
2517.051316030908,-196.7741935483871
2518.0513364186836,-199.99999999999997
2519.051356806459,-196.7741935483871
2520.0513771942346,-193.54838709677418
2521.05139758201,-190.32258064516128
2522.0514179697852,-187.09677419354836
2523.051438357561,-180.64516129032256
2524.0514587453363,-174.19354838709677
2525.051479133112,-167.74193548387098
2526.0514995208873,-167.74193548387098
2527.051519908663,-161.29032258064515
2528.0515402964384,-164.51612903225805
2529.0515606842137,-164.51612903225805
2530.0515810719894,-164.51612903225805
2531.0516014597647,-164.51612903225805
2532.0516218475404,-161.29032258064515
2533.0516422353157,-161.29032258064515
2534.0516626230915,-161.29032258064515
2535.051683010867,-167.74193548387098
2536.051703398642,-177.41935483870967
2537.051723786418,-180.64516129032256
2538.051744174193,-180.64516129032256
2539.051764561969,-174.19354838709677
2540.051784949744,-164.51612903225805
2541.05180533752,-158.06451612903226
2542.051825725295,-154.83870967741933
2543.0518461130705,-161.29032258064515
2544.0518665008462,-161.29032258064515
2545.0518868886215,-161.29032258064515
2546.0519072763973,-158.06451612903226
2547.0519276641726,-151.61290322580646
2548.0519480519483,-148.38709677419354
2549.0519684397236,-145.16129032258067
2550.051988827499,-148.38709677419354
2551.0520092152747,-148.38709677419354
2552.05202960305,-148.38709677419354
2553.0520499908257,-141.93548387096774
2554.052070378601,-135.48387096774192
2555.0520907663768,-132.258064516129
2556.052111154152,-129.03225806451613
2557.0521315419273,-125.80645161290322
2558.052151929703,-129.03225806451613
2559.0521723174784,-132.258064516129
2560.052192705254,-135.48387096774192
2561.0522130930294,-141.93548387096774
2562.052233480805,-145.16129032258067
2563.0522538685805,-141.93548387096774
2564.0522742563558,-132.258064516129
2565.0522946441315,-125.80645161290322
2566.052315031907,-122.58064516129032
2567.0523354196825,-125.80645161290322
2568.052355807458,-129.03225806451613
2569.0523761952336,-125.80645161290322
2570.052396583009,-116.12903225806453
2571.052416970784,-116.12903225806453
2572.05243735856,-116.12903225806453
2573.052457746335,-112.9032258064516
2574.052478134111,-112.9032258064516
2575.0524985218863,-109.6774193548387
2576.052518909662,-106.4516129032258
2577.0525392974373,-103.2258064516129
2578.052559685213,-96.77419354838709
2579.0525800729883,-93.54838709677418
2580.0526004607636,-90.32258064516128
2581.0526208485394,-90.32258064516128
2582.0526412363147,-93.54838709677418
2583.0526616240904,-96.77419354838709
2584.0526820118657,-96.77419354838709
2585.0527023996415,-96.77419354838709
2586.0527227874168,-96.77419354838709
2587.052743175192,-99.99999999999999
2588.052763562968,-99.99999999999999
2589.052783950743,-99.99999999999999
2590.052804338519,-99.99999999999999
2591.052824726294,-96.77419354838709
2592.05284511407,-96.77419354838709
2593.052865501845,-99.99999999999999
2594.0528858896205,-99.99999999999999
2595.0529062773962,-99.99999999999999
2596.0529266651715,-99.99999999999999
2597.0529470529473,-96.77419354838709
2598.0529674407226,-99.99999999999999
2599.0529878284983,-96.77419354838709
2600.0530082162736,-99.99999999999999
2601.053028604049,-93.54838709677418
2602.0530489918247,-77.41935483870967
2603.0530693796,-67.74193548387096
2604.0530897673757,-64.51612903225806
2605.053110155151,-64.51612903225806
2606.0531305429267,-61.29032258064516
2607.053150930702,-51.61290322580645
2608.0531713184773,-54.83870967741935
2609.053191706253,-58.06451612903226
2610.0532120940284,-54.83870967741935
2611.053232481804,-54.83870967741935
2612.0532528695794,-58.06451612903226
2613.053273257355,-61.29032258064516
2614.0532936451305,-58.06451612903226
2615.0533140329057,-61.29032258064516
2616.0533344206815,-64.51612903225806
2617.053354808457,-67.74193548387096
2618.0533751962325,-67.74193548387096
2619.053395584008,-67.74193548387096
2620.0534159717836,-67.74193548387096
2621.053436359559,-64.51612903225806
2622.053456747334,-48.387096774193544
2623.05347713511,-38.70967741935483
2624.053497522885,-35.483870967741936
2625.053517910661,-32.25806451612903
2626.0535382984363,-35.483870967741936
2627.053558686212,-35.483870967741936
2628.0535790739873,-35.483870967741936
2629.0535994617626,-38.70967741935483
2630.0536198495383,-41.935483870967744
2631.0536402373136,-41.935483870967744
2632.0536606250894,-45.16129032258064
2633.0536810128647,-41.935483870967744
2634.0537014006404,-38.70967741935483
2635.0537217884157,-38.70967741935483
2636.0537421761915,-38.70967741935483
2637.0537625639668,-29.03225806451613
2638.053782951742,-22.58064516129032
2639.053803339518,-16.129032258064516
2640.053823727293,-12.903225806451612
2641.053844115069,-12.903225806451612
2642.053864502844,-16.129032258064516
2643.05388489062,-22.58064516129032
2644.053905278395,-19.354838709677416
2645.0539256661705,-22.58064516129032
2646.053946053946,-22.58064516129032
2647.0539664417215,-19.354838709677416
2648.0539868294973,-22.58064516129032
2649.0540072172726,-22.58064516129032
2650.0540276050483,-19.354838709677416
2651.0540479928236,-16.129032258064516
2652.054068380599,-22.58064516129032
2653.0540887683746,-25.806451612903224
2654.05410915615,-25.806451612903224
2655.0541295439257,-25.806451612903224
2656.054149931701,-25.806451612903224
2657.0541703194767,-25.806451612903224
2658.054190707252,-25.806451612903224
2659.0542110950273,-16.129032258064516
2660.054231482803,-16.129032258064516
2661.0542518705784,-19.354838709677416
2662.054272258354,-22.58064516129032
2663.0542926461294,-25.806451612903224
2664.054313033905,-25.806451612903224
2665.0543334216804,-25.806451612903224
2666.0543538094557,-25.806451612903224
2667.0543741972315,-22.58064516129032
2668.054394585007,-22.58064516129032
2669.0544149727825,-22.58064516129032
2670.054435360558,-19.354838709677416
2671.0544557483336,-19.354838709677416
2672.054476136109,-16.129032258064516
2673.054496523884,-16.129032258064516
2674.05451691166,-16.129032258064516
2675.054537299435,-22.58064516129032
2676.054557687211,-22.58064516129032
2677.0545780749862,-9.677419354838708
2678.054598462762,3.225806451612903
2679.0546188505373,9.677419354838708
2680.0546392383126,6.451612903225806
2681.0546596260883,0.0
2682.0546800138636,0.0
2683.0547004016394,3.225806451612903
2684.0547207894147,0.0
2685.0547411771904,-6.451612903225806
2686.0547615649657,-9.677419354838708
2687.0547819527415,-12.903225806451612
2688.0548023405167,-16.129032258064516
2689.054822728292,-12.903225806451612
2690.054843116068,-3.225806451612903
2691.054863503843,3.225806451612903
2692.054883891619,3.225806451612903
2693.054904279394,3.225806451612903
2694.05492466717,0.0
2695.054945054945,0.0
2696.0549654427205,-3.225806451612903
2697.054985830496,-9.677419354838708
2698.0550062182715,-9.677419354838708
2699.0550266060472,-9.677419354838708
2700.0550469938225,-9.677419354838708
2701.0550673815983,-12.903225806451612
2702.0550877693736,-6.451612903225806
2703.055108157149,0.0
2704.0551285449246,3.225806451612903
2705.0551489327,3.225806451612903
2706.0551693204757,0.0
2707.055189708251,0.0
2708.0552100960267,-6.451612903225806
2709.055230483802,-6.451612903225806
2710.0552508715773,-6.451612903225806
2711.055271259353,-12.903225806451612
2712.0552916471283,-12.903225806451612
2713.055312034904,-16.129032258064516
2714.0553324226794,-16.129032258064516
2715.055352810455,-12.903225806451612
2716.0553731982304,-12.903225806451612
2717.0553935860057,-16.129032258064516
2718.0554139737815,-9.677419354838708
2719.0554343615568,-6.451612903225806
2720.0554547493325,-3.225806451612903
2721.055475137108,-3.225806451612903
2722.0554955248836,0.0
2723.055515912659,3.225806451612903
2724.055536300434,3.225806451612903
2725.05555668821,3.225806451612903
2726.055577075985,0.0
2727.055597463761,3.225806451612903
2728.055617851536,0.0
2729.055638239312,-3.225806451612903
2730.0556586270873,-9.677419354838708
2731.0556790148626,-9.677419354838708
2732.0556994026383,-9.677419354838708
2733.0557197904136,-12.903225806451612
2734.0557401781894,-9.677419354838708
2735.0557605659646,-3.225806451612903
2736.0557809537404,6.451612903225806
2737.0558013415157,12.903225806451612
2738.055821729291,16.129032258064516
2739.0558421170667,22.58064516129032
2740.055862504842,22.58064516129032
2741.055882892618,19.354838709677416
2742.055903280393,22.58064516129032
2743.055923668169,9.677419354838708
2744.055944055944,3.225806451612903
2745.05596444372,-3.225806451612903
2746.055984831495,-3.225806451612903
2747.0560052192704,0.0
2748.056025607046,0.0
2749.0560459948215,0.0
2750.0560663825972,-3.225806451612903
2751.0560867703725,-6.451612903225806
2752.0561071581483,-3.225806451612903
2753.0561275459236,-6.451612903225806
2754.056147933699,0.0
2755.0561683214746,3.225806451612903
2756.05618870925,9.677419354838708
2757.0562090970257,9.677419354838708
2758.056229484801,6.451612903225806
2759.0562498725767,6.451612903225806
2760.056270260352,3.225806451612903
2761.0562906481273,0.0
2762.056311035903,-3.225806451612903
2763.0563314236783,9.677419354838708
2764.056351811454,16.129032258064516
2765.0563721992294,9.677419354838708
2766.056392587005,9.677419354838708
2767.0564129747804,12.903225806451612
2768.0564333625557,12.903225806451612
2769.0564537503315,9.677419354838708
2770.0564741381068,6.451612903225806
2771.0564945258825,6.451612903225806
2772.056514913658,3.225806451612903
2773.0565353014335,3.225806451612903
2774.056555689209,6.451612903225806
2775.056576076984,6.451612903225806
2776.05659646476,9.677419354838708
2777.056616852535,9.677419354838708
2778.056637240311,12.903225806451612
2779.056657628086,9.677419354838708
2780.056678015862,9.677419354838708
2781.0566984036373,6.451612903225806
2782.0567187914125,9.677419354838708
2783.0567391791883,12.903225806451612
2784.0567595669636,12.903225806451612
2785.0567799547393,9.677419354838708
2786.0568003425146,6.451612903225806
2787.0568207302904,3.225806451612903
2788.0568411180657,6.451612903225806
2789.056861505841,12.903225806451612
2790.0568818936167,19.354838709677416
2791.056902281392,19.354838709677416
2792.0569226691678,16.129032258064516
2793.056943056943,9.677419354838708
2794.056963444719,12.903225806451612
2795.056983832494,9.677419354838708
2796.05700422027,6.451612903225806
2797.057024608045,9.677419354838708
2798.0570449958204,9.677419354838708
2799.057065383596,6.451612903225806
2800.0570857713715,6.451612903225806
2801.057106159147,3.225806451612903
2802.0571265469225,6.451612903225806
2803.0571469346983,6.451612903225806
2804.0571673224736,3.225806451612903
2805.057187710249,3.225806451612903
2806.0572080980246,9.677419354838708
2807.0572284858,22.58064516129032
2808.0572488735756,25.806451612903224
2809.057269261351,29.03225806451613
2810.0572896491267,25.806451612903224
2811.057310036902,22.58064516129032
2812.0573304246773,19.354838709677416
2813.057350812453,16.129032258064516
2814.0573712002283,3.225806451612903
2815.057391588004,0.0
2816.0574119757794,0.0
2817.057432363555,3.225806451612903
2818.0574527513304,6.451612903225806
2819.0574731391057,9.677419354838708
2820.0574935268814,12.903225806451612
2821.0575139146567,19.354838709677416
2822.0575343024325,9.677419354838708
2823.057554690208,0.0
2824.0575750779835,6.451612903225806
2825.057595465759,16.129032258064516
2826.057615853534,22.58064516129032
2827.05763624131,22.58064516129032
2828.057656629085,19.354838709677416
2829.057677016861,19.354838709677416
2830.057697404636,19.354838709677416
2831.057717792412,19.354838709677416
2832.0577381801872,19.354838709677416
2833.0577585679625,12.903225806451612
2834.0577789557383,6.451612903225806
2835.0577993435136,3.225806451612903
2836.0578197312893,-3.225806451612903
2837.0578401190646,-3.225806451612903
2838.0578605068404,-3.225806451612903
2839.0578808946157,0.0
2840.057901282391,-3.225806451612903
2841.0579216701667,-3.225806451612903
2842.057942057942,-6.451612903225806
2843.0579624457177,-9.677419354838708
2844.057982833493,-16.129032258064516
2845.058003221269,-12.903225806451612
2846.058023609044,0.0
2847.0580439968194,9.677419354838708
2848.058064384595,12.903225806451612
2849.0580847723704,16.129032258064516
2850.058105160146,16.129032258064516
2851.0581255479215,19.354838709677416
2852.058145935697,16.129032258064516
2853.0581663234725,12.903225806451612
2854.0581867112483,6.451612903225806
2855.0582070990235,3.225806451612903
2856.058227486799,-6.451612903225806
2857.0582478745746,-3.225806451612903
2858.05826826235,3.225806451612903
2859.0582886501256,3.225806451612903
2860.058309037901,6.451612903225806
2861.0583294256767,9.677419354838708
2862.058349813452,9.677419354838708
2863.0583702012273,12.903225806451612
2864.058390589003,19.354838709677416
2865.0584109767783,19.354838709677416
2866.058431364554,16.129032258064516
2867.0584517523293,16.129032258064516
2868.058472140105,12.903225806451612
2869.0584925278804,6.451612903225806
2870.0585129156557,9.677419354838708
2871.0585333034314,12.903225806451612
2872.0585536912067,12.903225806451612
2873.0585740789825,6.451612903225806
2874.0585944667578,-3.225806451612903
2875.0586148545335,-3.225806451612903
2876.058635242309,0.0
2877.058655630084,0.0
2878.05867601786,-3.225806451612903
2879.058696405635,0.0
2880.058716793411,0.0
2881.058737181186,0.0
2882.058757568962,3.225806451612903
2883.0587779567372,3.225806451612903
2884.0587983445125,12.903225806451612
2885.0588187322883,16.129032258064516
2886.0588391200636,16.129032258064516
2887.0588595078393,19.354838709677416
2888.0588798956146,16.129032258064516
2889.0589002833904,16.129032258064516
2890.0589206711657,12.903225806451612
2891.058941058941,16.129032258064516
2892.0589614467167,12.903225806451612
2893.058981834492,9.677419354838708
2894.0590022222677,12.903225806451612
2895.059022610043,12.903225806451612
2896.059042997819,9.677419354838708
2897.059063385594,9.677419354838708
2898.0590837733694,9.677419354838708
2899.059104161145,6.451612903225806
2900.0591245489204,3.225806451612903
2901.059144936696,3.225806451612903
2902.0591653244715,3.225806451612903
2903.059185712247,3.225806451612903
2904.0592061000225,6.451612903225806
2905.059226487798,9.677419354838708
2906.0592468755735,9.677419354838708
2907.059267263349,9.677419354838708
2908.0592876511246,3.225806451612903
2909.0593080389,3.225806451612903
2910.0593284266756,3.225806451612903
2911.059348814451,3.225806451612903
2912.0593692022267,0.0
2913.059389590002,0.0
2914.0594099777772,0.0
2915.059430365553,-6.451612903225806
2916.0594507533283,-9.677419354838708
2917.059471141104,-9.677419354838708
2918.0594915288793,-6.451612903225806
2919.059511916655,-6.451612903225806
2920.0595323044304,-6.451612903225806
2921.0595526922057,-6.451612903225806
2922.0595730799814,0.0
2923.0595934677567,3.225806451612903
2924.0596138555325,6.451612903225806
2925.0596342433078,9.677419354838708
2926.0596546310835,6.451612903225806
2927.059675018859,6.451612903225806
2928.059695406634,6.451612903225806
2929.05971579441,9.677419354838708
2930.059736182185,9.677419354838708
2931.059756569961,9.677419354838708
2932.059776957736,6.451612903225806
2933.059797345512,0.0
2934.059817733287,-3.225806451612903
2935.0598381210625,-6.451612903225806
2936.0598585088383,-9.677419354838708
2937.0598788966136,-9.677419354838708
2938.0598992843893,-3.225806451612903
2939.0599196721646,3.225806451612903
2940.0599400599403,3.225806451612903
2941.0599604477156,9.677419354838708
2942.059980835491,9.677419354838708
2943.0600012232667,6.451612903225806
2944.060021611042,9.677419354838708
2945.0600419988177,12.903225806451612
2946.060062386593,9.677419354838708
2947.0600827743688,3.225806451612903
2948.060103162144,0.0
2949.0601235499194,0.0
2950.060143937695,3.225806451612903
2951.0601643254704,3.225806451612903
2952.060184713246,3.225806451612903
2953.0602051010214,3.225806451612903
2954.060225488797,9.677419354838708
2955.0602458765725,16.129032258064516
2956.060266264348,12.903225806451612
2957.0602866521235,9.677419354838708
2958.060307039899,9.677419354838708
2959.0603274276746,12.903225806451612
2960.06034781545,12.903225806451612
2961.0603682032256,12.903225806451612
2962.060388591001,16.129032258064516
2963.0604089787766,16.129032258064516
2964.060429366552,16.129032258064516
2965.0604497543272,3.225806451612903
2966.060470142103,-9.677419354838708
2967.0604905298783,-9.677419354838708
2968.060510917654,-6.451612903225806
2969.0605313054293,-9.677419354838708
2970.060551693205,-16.129032258064516
2971.0605720809804,-16.129032258064516
2972.0605924687557,-22.58064516129032
2973.0606128565314,-19.354838709677416
2974.0606332443067,-12.903225806451612
2975.0606536320824,-12.903225806451612
2976.0606740198577,-12.903225806451612
2977.0606944076335,-6.451612903225806
2978.060714795409,-6.451612903225806
2979.060735183184,-3.225806451612903
2980.06075557096,0.0
2981.060775958735,3.225806451612903
2982.060796346511,3.225806451612903
2983.060816734286,3.225806451612903
2984.060837122062,12.903225806451612
2985.060857509837,19.354838709677416
2986.0608778976125,19.354838709677416
2987.0608982853882,12.903225806451612
2988.0609186731635,9.677419354838708
2989.0609390609393,9.677419354838708
2990.0609594487146,6.451612903225806
2991.0609798364903,9.677419354838708
2992.0610002242656,12.903225806451612
2993.061020612041,12.903225806451612
2994.0610409998167,16.129032258064516
2995.061061387592,22.58064516129032
2996.0610817753677,22.58064516129032
2997.061102163143,19.354838709677416
2998.0611225509188,16.129032258064516
2999.061142938694,12.903225806451612
3000.0611633264693,12.903225806451612
3001.061183714245,12.903225806451612
3002.0612041020204,12.903225806451612
3003.061224489796,9.677419354838708
3004.0612448775714,9.677419354838708
3005.061265265347,9.677419354838708
3006.0612856531225,6.451612903225806
3007.0613060408978,9.677419354838708
3008.0613264286735,6.451612903225806
3009.061346816449,3.225806451612903
3010.0613672042246,3.225806451612903
3011.061387592,12.903225806451612
3012.0614079797756,19.354838709677416
3013.061428367551,16.129032258064516
3014.061448755326,19.354838709677416
3015.061469143102,19.354838709677416
3016.061489530877,16.129032258064516
3017.061509918653,19.354838709677416
3018.0615303064283,22.58064516129032
3019.061550694204,25.806451612903224
3020.0615710819793,22.58064516129032
3021.061591469755,16.129032258064516
3022.0616118575304,12.903225806451612
3023.0616322453056,12.903225806451612
3024.0616526330814,12.903225806451612
3025.0616730208567,9.677419354838708
3026.0616934086324,6.451612903225806
3027.0617137964077,12.903225806451612
3028.0617341841835,16.129032258064516
3029.0617545719588,19.354838709677416
3030.061774959734,16.129032258064516
3031.06179534751,16.129032258064516
3032.061815735285,19.354838709677416
3033.061836123061,25.806451612903224
3034.061856510836,22.58064516129032
3035.061876898612,19.354838709677416
3036.061897286387,16.129032258064516
3037.0619176741625,12.903225806451612
3038.0619380619382,9.677419354838708
3039.0619584497135,9.677419354838708
3040.0619788374893,16.129032258064516
3041.0619992252646,19.354838709677416
3042.0620196130403,29.03225806451613
3043.0620400008156,41.935483870967744
3044.062060388591,54.83870967741935
3045.0620807763667,61.29032258064516
3046.062101164142,61.29032258064516
3047.0621215519177,51.61290322580645
3048.062141939693,41.935483870967744
3049.0621623274687,38.70967741935483
3050.062182715244,38.70967741935483
3051.0622031030193,32.25806451612903
3052.062223490795,35.483870967741936
3053.0622438785704,35.483870967741936
3054.062264266346,35.483870967741936
3055.0622846541214,38.70967741935483
3056.062305041897,38.70967741935483
3057.0623254296725,38.70967741935483
3058.0623458174477,38.70967741935483
3059.0623662052235,38.70967741935483
3060.062386592999,45.16129032258064
3061.0624069807745,51.61290322580645
3062.06242736855,48.387096774193544
3063.0624477563256,45.16129032258064
3064.062468144101,48.387096774193544
3065.062488531876,51.61290322580645
3066.062508919652,54.83870967741935
3067.062529307427,58.06451612903226
3068.062549695203,54.83870967741935
3069.0625700829783,58.06451612903226
3070.062590470754,61.29032258064516
3071.0626108585293,61.29032258064516
3072.0626312463046,61.29032258064516
3073.0626516340803,64.51612903225806
3074.0626720218556,61.29032258064516
3075.0626924096314,54.83870967741935
3076.0627127974067,51.61290322580645
3077.0627331851824,38.70967741935483
3078.0627535729577,25.806451612903224
3079.0627739607335,16.129032258064516
3080.0627943485088,12.903225806451612
3081.062814736284,3.225806451612903
3082.06283512406,0.0
3083.062855511835,-6.451612903225806
3084.062875899611,-12.903225806451612
3085.062896287386,-19.354838709677416
3086.062916675162,-19.354838709677416
3087.062937062937,-22.58064516129032
3088.0629574507125,-25.806451612903224
3089.062977838488,-29.03225806451613
3090.0629982262635,-29.03225806451613
3091.0630186140393,-29.03225806451613
3092.0630390018146,-32.25806451612903
3093.0630593895903,-32.25806451612903
3094.0630797773656,-35.483870967741936
3095.063100165141,-41.935483870967744
3096.0631205529166,-48.387096774193544
3097.063140940692,-54.83870967741935
3098.0631613284677,-67.74193548387096
3099.063181716243,-51.61290322580645
3100.0632021040187,-29.03225806451613
3101.063222491794,-16.129032258064516
3102.0632428795693,-6.451612903225806
3103.063263267345,0.0
3104.0632836551204,3.225806451612903
3105.063304042896,0.0
3106.0633244306714,-6.451612903225806
3107.063344818447,-9.677419354838708
3108.0633652062224,-16.129032258064516
3109.0633855939977,-19.354838709677416
3110.0634059817735,-16.129032258064516
3111.063426369549,-9.677419354838708
3112.0634467573245,-12.903225806451612
3113.0634671451,-25.806451612903224
3114.0634875328756,-32.25806451612903
3115.063507920651,-32.25806451612903
3116.063528308426,-32.25806451612903
3117.063548696202,-29.03225806451613
3118.063569083977,-25.806451612903224
3119.063589471753,-25.806451612903224
3120.0636098595282,-25.806451612903224
3121.063630247304,-22.58064516129032
3122.0636506350793,-16.129032258064516
3123.0636710228546,-12.903225806451612
3124.0636914106303,-9.677419354838708
3125.0637117984056,-12.903225806451612
3126.0637321861814,-16.129032258064516
3127.0637525739567,-12.903225806451612
3128.0637729617324,-12.903225806451612
3129.0637933495077,-16.129032258064516
3130.0638137372835,-19.354838709677416
3131.0638341250587,-19.354838709677416
3132.063854512834,-16.129032258064516
3133.06387490061,-19.354838709677416
3134.063895288385,-25.806451612903224
3135.063915676161,-29.03225806451613
3136.063936063936,-25.806451612903224
3137.063956451712,-25.806451612903224
3138.063976839487,-19.354838709677416
3139.0639972272625,-16.129032258064516
3140.064017615038,-12.903225806451612
3141.0640380028135,-9.677419354838708
3142.0640583905893,-3.225806451612903
3143.0640787783645,6.451612903225806
3144.0640991661403,16.129032258064516
3145.0641195539156,22.58064516129032
3146.064139941691,35.483870967741936
3147.0641603294666,45.16129032258064
3148.064180717242,54.83870967741935
3149.0642011050177,64.51612903225806
3150.064221492793,77.41935483870967
3151.0642418805687,93.54838709677418
3152.064262268344,119.35483870967742
3153.0642826561193,148.38709677419354
3154.064303043895,180.64516129032256
3155.0643234316703,216.12903225806448
3156.064343819446,245.16129032258064
3157.0643642072214,277.41935483870964
3158.064384594997,300.0
3159.0644049827724,325.8064516129032
3160.0644253705477,354.83870967741933
3161.0644457583235,387.09677419354836
3162.0644661460988,416.12903225806446
3163.0644865338745,438.7096774193548
3164.06450692165,464.5161290322581
3165.0645273094256,480.64516129032256
3166.064547697201,496.7741935483871
3167.064568084976,509.67741935483866
3168.064588472752,516.1290322580645
3169.064608860527,509.67741935483866
3170.064629248303,493.54838709677415
3171.0646496360782,461.2903225806451
3172.064670023854,416.12903225806446
3173.0646904116293,374.1935483870967
3174.0647107994046,335.48387096774195
3175.0647311871803,283.8709677419355
3176.0647515749556,219.3548387096774
3177.0647719627314,145.16129032258067
3178.0647923505067,51.61290322580645
3179.0648127382824,-51.61290322580645
3180.0648331260577,-167.74193548387098
3181.064853513833,-274.19354838709677
3182.0648739016087,-370.96774193548384
3183.064894289384,-458.0645161290322
3184.06491467716,-545.1612903225805
3185.064935064935,-629.0322580645161
3186.064955452711,-706.4516129032257
3187.064975840486,-761.2903225806451
3188.064996228262,-799.9999999999999
3189.065016616037,-825.8064516129032
3190.0650370038124,-835.483870967742
3191.065057391588,-832.2580645161289
3192.0650777793635,-819.3548387096774
3193.0650981671392,-803.2258064516129
3194.0651185549145,-780.6451612903226
3195.0651389426903,-754.8387096774193
3196.0651593304656,-722.5806451612902
3197.065179718241,-683.8709677419355
3198.0652001060166,-635.4838709677418
3199.065220493792,-593.5483870967741
3200.0652408815677,-551.6129032258063
3201.065261269343,-509.67741935483866
3202.0652816571187,-474.19354838709677
3203.065302044894,-445.1612903225806
3204.0653224326693,-416.12903225806446
3205.065342820445,-390.3225806451613
3206.0653632082203,-358.06451612903226
3207.065383595996,-322.5806451612903
3208.0654039837714,-296.7741935483871
3209.065424371547,-264.516129032258
3210.0654447593224,-232.25806451612905
3211.0654651470977,-196.7741935483871
3212.0654855348735,-154.83870967741933
3213.0655059226488,-129.03225806451613
3214.0655263104245,-93.54838709677418
3215.0655466982,-67.74193548387096
3216.0655670859755,-48.387096774193544
3217.065587473751,-29.03225806451613
3218.065607861526,-12.903225806451612
3219.065628249302,0.0
3220.065648637077,9.677419354838708
3221.065669024853,16.129032258064516
3222.065689412628,25.806451612903224
3223.065709800404,41.935483870967744
3224.0657301881793,54.83870967741935
3225.0657505759546,64.51612903225806
3226.0657709637303,77.41935483870967
3227.0657913515056,93.54838709677418
3228.0658117392813,106.4516129032258
3229.0658321270566,116.12903225806453
3230.0658525148324,122.58064516129032
3231.0658729026077,129.03225806451613
3232.065893290383,132.258064516129
3233.0659136781587,132.258064516129
3234.065934065934,135.48387096774192
3235.0659544537098,135.48387096774192
3236.065974841485,132.258064516129
3237.065995229261,129.03225806451613
3238.066015617036,122.58064516129032
3239.066036004812,122.58064516129032
3240.066056392587,122.58064516129032
3241.0660767803624,119.35483870967742
3242.066097168138,119.35483870967742
3243.0661175559135,116.12903225806453
3244.0661379436892,112.9032258064516
3245.0661583314645,112.9032258064516
3246.0661787192403,116.12903225806453
3247.0661991070156,125.80645161290322
3248.066219494791,129.03225806451613
3249.0662398825666,135.48387096774192
3250.066260270342,138.70967741935482
3251.0662806581176,138.70967741935482
3252.066301045893,138.70967741935482
3253.0663214336687,135.48387096774192
3254.066341821444,129.03225806451613
3255.0663622092193,122.58064516129032
3256.066382596995,122.58064516129032
3257.0664029847703,129.03225806451613
3258.066423372546,129.03225806451613
3259.0664437603214,129.03225806451613
